%H field first colomn	Temp row	Cp array	Corrected for demagnetization using the Anaroni demagnetization factor	 NaN means no data	 Interpolated from 6 field measurement
0.0000		229			230			231			232			233			234			235			236			237			238			239			240			241			242			243			244			245			246			247			248			249			250			251			252			253			254			255			256			257			258			259			260			261			262			263			264			265			266			267			268			269			270			271			272			273			274			275			276			277			278			279			280			281			282			283			284			285			286			287			288			289			290			291			292			293			294			295			296			297			298			299			300			301			302			303			304			305			306			307			308			309			310			311			312			313			314			315			316			317			
 0.000		426.9056		429.5266		432.2068		434.7819		436.0417		437.3251		440.4924		441.7728		444.7480		447.2560		449.9187		451.4477		453.3233		458.2398		460.5170		463.2421		465.8681		472.1958		475.7251		477.9227		482.8036		488.7924		492.6467		497.5330		504.6019		509.0532		515.0990		525.1487		532.4945		542.0862		552.6129		562.3158		577.8921		591.9636		607.9614		627.1940		650.2250		675.5227		708.4659		745.4017		785.7018		831.4911		875.3572		905.1822		898.6487		842.2476		743.8484		642.0677		591.2288		565.7695		544.6420		532.5458		520.1526		512.1337		505.7423		499.5631		494.6405		489.6713		484.3132		481.5981		479.5497		476.2202		473.6046		471.4720		468.8782		467.2745		465.4115		461.7494		461.9814		460.6936		459.5383		458.4507		455.9838		455.3267		455.0813		454.0105		454.1308		454.3557		450.7180		451.5370		450.1554		448.6832		449.5209		450.0044		449.0419		447.9849		447.8071		447.8947		445.9846		
 0.010		426.8322		429.4059		431.9821		434.5728		435.8354		437.2862		440.4109		441.6141		444.5521		447.1813		449.7776		451.5100		453.3070		458.0319		460.4335		463.1857		465.8425		472.2123		475.7284		477.8852		482.8459		488.6485		492.5183		497.4620		504.3234		508.9499		515.0005		525.0113		532.0671		541.6647		552.2075		561.9070		577.3348		591.1297		607.0996		626.1753		648.8308		673.9004		706.5300		742.9863		782.5153		827.6507		871.0332		900.9633		895.8321		841.9164		746.0859		647.2173		596.0959		569.1895		547.3875		534.5807		521.5386		513.1964		506.4329		500.1862		495.1003		490.0815		484.6472		481.8997		479.7150		476.3576		473.7110		471.5356		469.0052		467.4390		465.5368		461.8532		462.0893		460.7848		459.6515		458.4748		456.0404		455.4016		455.1355		454.0816		454.1527		454.3886		450.8071		451.6722		450.2347		448.7440		449.5848		450.0914		449.1030		448.0877		447.9012		447.9693		446.0124		
 0.020		426.7589		429.2852		431.7573		434.3637		435.6292		437.2472		440.3295		441.4553		444.3563		447.1066		449.6365		451.5723		453.2908		457.8240		460.3501		463.1293		465.8170		472.2288		475.7317		477.8477		482.8882		488.5046		492.3898		497.3910		504.0450		508.8466		514.9020		524.8739		531.6397		541.2432		551.8021		561.4983		576.7774		590.2958		606.2379		625.1566		647.4366		672.2781		704.5941		740.5708		779.3288		823.8103		866.7092		896.7443		893.0155		841.5852		748.3234		652.3668		600.9630		572.6096		550.1331		536.6156		522.9246		514.2591		507.1236		500.8093		495.5601		490.4917		484.9812		482.2013		479.8802		476.4950		473.8173		471.5992		469.1321		467.6036		465.6621		461.9570		462.1971		460.8761		459.7647		458.4990		456.0969		455.4766		455.1897		454.1527		454.1746		454.4214		450.8963		451.8075		450.3139		448.8049		449.6487		450.1784		449.1642		448.1905		447.9954		448.0440		446.0402		
 0.030		426.6855		429.1646		431.5326		434.1546		435.4229		437.2083		440.2481		441.2966		444.1604		447.0320		449.4954		451.6346		453.2745		457.6161		460.2666		463.0728		465.7914		472.2454		475.7350		477.8102		482.9304		488.3606		492.2613		497.3199		503.7666		508.7434		514.8035		524.7364		531.2123		540.8217		551.3966		561.0895		576.2201		589.4619		605.3762		624.1379		646.0424		670.6558		702.6583		738.1554		776.1423		819.9699		862.3853		892.5254		890.1990		841.2541		750.5610		657.5164		605.8301		576.0297		552.8786		538.6506		524.3106		515.3217		507.8143		501.4325		496.0198		490.9019		485.3152		482.5029		480.0454		476.6324		473.9237		471.6627		469.2591		467.7682		465.7874		462.0609		462.3049		460.9673		459.8779		458.5232		456.1535		455.5516		455.2439		454.2237		454.1965		454.4543		450.9855		451.9427		450.3931		448.8657		449.7127		450.2653		449.2254		448.2933		448.0896		448.1186		446.0679		
 0.040		426.6121		429.0439		431.3078		433.9454		435.2166		437.1694		440.1666		441.1379		443.9646		446.9573		449.3543		451.6970		453.2583		457.4082		460.1831		463.0164		465.7658		472.2619		475.7382		477.7727		482.9727		488.2167		492.1329		497.2489		503.4881		508.6401		514.7050		524.5990		530.7849		540.4002		550.9912		560.6807		575.6627		588.6281		604.5145		623.1193		644.6481		669.0335		700.7224		735.7399		772.9558		816.1295		858.0613		888.3064		887.3824		840.9229		752.7985		662.6660		610.6972		579.4498		555.6242		540.6855		525.6967		516.3844		508.5049		502.0556		496.4796		491.3121		485.6492		482.8045		480.2106		476.7698		474.0301		471.7263		469.3860		467.9328		465.9127		462.1647		462.4127		461.0586		459.9911		458.5473		456.2100		455.6266		455.2981		454.2948		454.2184		454.4872		451.0747		452.0779		450.4723		448.9266		449.7766		450.3523		449.2865		448.3962		448.1838		448.1932		446.0957		
 0.050		426.5383		428.9117		431.0944		433.7419		435.0484		437.1338		440.0909		440.9886		443.7656		446.8844		449.2240		451.7593		453.2092		457.2003		460.0997		462.9599		465.7403		472.2270		475.7328		477.7352		483.0029		488.0727		492.0044		497.1779		503.2097		508.5368		514.6066		524.4616		530.3575		539.9787		550.5857		560.2719		575.1053		587.7942		603.6528		622.1006		643.2539		667.4112		698.7865		733.3245		769.7693		812.2891		853.7373		884.0875		884.5658		840.5917		755.0360		667.8156		615.5643		582.8699		558.3697		542.7204		527.0827		517.4471		509.1956		502.6787		496.9394		491.7223		485.9832		483.1061		480.3758		476.9072		474.1364		471.7898		469.5130		468.0973		466.0380		462.2685		462.5205		461.1498		460.1043		458.5715		456.2666		455.7016		455.3523		454.3659		454.2402		454.5200		451.1638		452.2131		450.5516		448.9874		449.8405		450.4393		449.3477		448.4990		448.2779		448.2678		446.1234		
 0.060		426.4630		428.7177		430.8891		433.5605		434.9082		437.1000		440.0777		440.8470		443.5156		446.8128		449.1074		451.7537		453.1211		457.0519		459.9832		462.9033		465.6733		472.1007		475.7010		477.6949		482.9329		487.9262		491.8958		497.0619		502.9410		508.3995		514.5501		524.3039		529.9359		539.5642		550.1803		559.8570		574.5480		586.9603		602.7842		621.0772		641.8597		665.7890		696.8506		730.9090		766.5828		808.4487		849.4133		879.8686		881.7493		840.2605		757.2735		672.9652		620.4315		586.2900		561.1153		544.7554		528.4687		518.5098		509.8863		503.3018		497.3992		492.1325		486.3172		483.4076		480.5410		477.0446		474.2428		471.8534		469.6399		468.2619		466.1633		462.3723		462.6283		461.2410		460.2175		458.5957		456.3231		455.7766		455.4065		454.4369		454.2621		454.5529		451.2530		452.3484		450.6308		449.0483		449.9044		450.5263		449.4088		448.6018		448.3721		448.3425		446.1512		
 0.070		426.3878		428.5236		430.6837		433.3792		434.7680		437.0662		440.0645		440.7054		443.2655		446.7413		448.9908		451.7435		453.0331		456.9107		459.8579		462.8466		465.5913		471.9744		475.6691		477.6536		482.8629		487.7779		491.7989		496.9430		502.6919		508.2349		514.4995		524.1443		529.5784		539.1970		549.7410		559.4380		573.9790		586.1958		601.8935		620.0166		640.5089		664.1750		694.7726		728.4529		763.3963		804.6083		845.0893		875.6496		878.9327		839.9294		759.5110		678.1148		625.2986		589.7100		563.8608		546.7903		529.8547		519.5724		510.5769		503.9250		497.8590		492.5427		486.6512		483.7092		480.7062		477.1819		474.3492		471.9169		469.7669		468.4265		466.2886		462.4762		462.7361		461.3323		460.3307		458.6199		456.3797		455.8516		455.4607		454.5080		454.2840		454.5858		451.3422		452.4836		450.7100		449.1091		449.9684		450.6132		449.4700		448.7046		448.4663		448.4171		446.1789		
 0.080		426.3125		428.3295		430.4784		433.1978		434.6277		437.0325		440.0513		440.5638		443.0155		446.6697		448.8743		451.7334		452.9451		456.7695		459.7327		462.7899		465.5092		471.8481		475.6372		477.6123		482.7929		487.6296		491.7020		496.8242		502.4428		508.0703		514.4488		523.9846		529.2208		538.8299		549.2976		559.0191		573.4039		585.4437		601.0028		618.9560		639.2390		662.6192		692.6547		725.9635		760.3560		800.8316		840.7654		871.4307		876.1161		839.5982		761.7485		683.2644		630.1657		593.1301		566.6064		548.8252		531.2407		520.6351		511.2676		504.5481		498.3188		492.9530		486.9851		484.0108		480.8714		477.3193		474.4555		471.9805		469.8938		468.5910		466.4139		462.5800		462.8439		461.4235		460.4439		458.6440		456.4362		455.9266		455.5149		454.5790		454.3059		454.6186		451.4314		452.6188		450.7892		449.1700		450.0323		450.7002		449.5311		448.8074		448.5604		448.4917		446.2067		
 0.090		426.2376		428.1354		430.2731		433.0165		434.4875		436.9987		440.0381		440.4222		442.7654		446.5982		448.7577		451.7232		452.8570		456.6283		459.6074		462.7332		465.4272		471.7218		475.6054		477.5710		482.7228		487.4813		491.6051		496.7054		502.1937		507.9057		514.3982		523.8249		528.8633		538.4627		548.8543		558.6001		572.8288		584.6915		600.1121		617.8954		637.9691		661.0634		690.5368		723.4740		757.4082		797.1844		836.6674		867.1094		873.2581		839.2670		764.0409		688.4139		635.0328		596.5502		569.3519		550.8601		532.6267		521.6978		511.9583		505.1712		498.7785		493.3632		487.3191		484.3124		481.0367		477.4567		474.5619		472.0440		470.0208		468.7556		466.5392		462.6838		462.9517		461.5148		460.5571		458.6682		456.4928		456.0016		455.5691		454.6501		454.3278		454.6515		451.5206		452.7541		450.8685		449.2309		450.0962		450.7872		449.5923		448.9102		448.6546		448.5664		446.2344		
 0.100		426.2583		428.1681		430.2892		433.0146		434.4885		436.9947		440.0345		440.3696		442.6884		446.5404		448.6891		451.6996		452.7928		456.5378		459.5165		462.6799		465.3544		471.5996		475.5735		477.5297		482.6528		487.3330		491.5081		496.5865		501.9446		507.7411		514.3476		523.6652		528.5057		538.0956		548.4109		558.1811		572.2537		583.9394		599.2214		616.8347		636.6992		659.5076		688.4189		720.9846		754.4603		793.5373		832.5802		862.7243		870.0017		838.4782		767.1704		693.5635		639.7484		599.9703		572.0975		552.8951		534.0127		522.7604		512.6489		505.7943		499.2383		493.7734		487.6531		484.6140		481.2019		477.5941		474.6682		472.1076		470.1477		468.9202		466.6645		462.7877		463.0595		461.6060		460.6703		458.6924		456.5494		456.0766		455.6233		454.7212		454.3497		454.6844		451.6097		452.8893		450.9477		449.2917		450.1601		450.8742		449.6534		449.0130		448.7488		448.6410		446.2622		
 0.110		426.2790		428.2091		430.3232		433.0362		434.5185		436.9993		440.0345		440.3619		442.7197		446.4934		448.6675		451.6596		452.7650		456.5461		459.5189		462.6410		465.3501		471.5652		475.4930		477.5123		482.5910		487.2306		491.4140		496.4610		501.7593		507.5758		514.2694		523.5033		528.1482		537.7285		547.9676		557.7622		571.6786		583.1872		598.3306		615.7741		635.4292		657.9519		686.3010		718.4952		751.5124		789.8902		828.4929		858.3392		866.7454		837.5547		770.2999		698.5681		644.3263		603.4241		574.6996		554.8181		535.3987		523.8231		513.3396		506.4174		499.6981		494.1836		487.9871		484.9156		481.3671		477.7315		474.7746		472.1711		470.2747		469.0848		466.7898		462.8915		463.1673		461.6973		460.7835		458.7165		456.6059		456.1515		455.6775		454.7922		454.3715		454.7172		451.6989		453.0245		451.0269		449.3526		450.2240		450.9611		449.7146		449.1158		448.8430		448.7156		446.2899		
 0.120		426.2996		428.2500		430.3573		433.0578		434.5485		437.0039		440.0344		440.3542		442.7511		446.4464		448.6460		451.6196		452.7373		456.5544		459.5213		462.6021		465.3458		471.5307		475.4109		477.4981		482.5313		487.1477		491.3216		496.3295		501.6643		507.4091		514.0611		523.2986		527.9525		537.4472		547.6219		557.3860		571.1628		582.4528		597.4399		614.7135		634.1593		656.3961		684.1831		716.0057		748.5645		786.2430		824.4057		853.9542		863.4891		836.6312		773.4294		703.5430		648.9041		607.1000		577.2828		556.7040		536.8140		524.8532		514.0303		506.9881		500.1579		494.5663		488.3211		485.1850		481.5363		477.8689		474.8878		472.2347		470.4043		469.2493		466.9249		462.9953		463.2751		461.7885		460.8967		458.7303		456.6625		456.2265		455.7317		454.8569		454.3934		454.7492		451.7881		453.1554		451.0964		449.4134		450.2881		451.0481		449.7757		449.2163		448.9343		448.7903		446.3177		
 0.130		426.3203		428.2910		430.3913		433.0793		434.5785		437.0086		440.0344		440.3465		442.7825		446.3994		448.6244		451.5796		452.7095		456.5627		459.5236		462.5632		465.3414		471.4963		475.3289		477.4840		482.4716		487.0647		491.2292		496.1980		501.5693		507.2423		513.8528		523.0939		527.7741		537.1932		547.3418		557.0670		570.8265		582.0634		596.8697		613.9129		633.0764		654.8529		682.0652		713.5163		745.6166		782.5959		820.3185		849.5691		860.2328		835.7077		776.5588		708.5178		653.4820		610.7759		579.8661		558.5898		538.2916		525.8807		514.7738		507.5440		500.6366		494.9424		488.6535		485.4350		481.7094		478.0046		475.0123		472.2987		470.5356		469.4111		467.0691		463.1041		463.3783		461.8818		461.0099		458.7273		456.7190		456.2996		455.7859		454.9121		454.4151		454.7802		451.8773		453.2675		451.1561		449.4743		450.3531		451.1078		449.8369		449.3114		449.0192		448.8649		446.3454		
 0.140		426.3409		428.3320		430.4253		433.1009		434.6084		437.0132		440.0344		440.3388		442.8139		446.3524		448.6028		451.5395		452.6818		456.5710		459.5260		462.5243		465.3371		471.4618		475.2468		477.4699		482.4119		486.9817		491.1367		496.0665		501.4743		507.0755		513.6444		522.8892		527.5957		536.9391		547.0616		556.7479		570.4901		581.6740		596.3654		613.2904		632.3859		654.0300		680.7321		711.4548		742.6687		778.9487		816.2312		845.1841		856.9764		834.7842		779.6883		713.4927		658.0598		614.4518		582.4494		560.4757		539.7692		526.9082		515.5386		508.0999		501.1366		495.3185		488.9844		485.6851		481.8825		478.1284		475.1367		472.3760		470.6669		469.5691		467.2133		463.2203		463.4529		461.9796		461.1320		458.7242		456.7730		456.3604		455.8732		454.9673		454.4362		454.8111		451.9502		453.3795		451.2158		449.5714		450.4181		451.1669		449.8633		449.4065		449.1041		448.9597		446.3401		
 0.150		426.3616		428.3729		430.4594		433.1225		434.6384		437.0178		440.0344		440.3310		442.8452		446.3054		448.5813		451.4995		452.6540		456.5793		459.5283		462.4853		465.3328		471.4273		475.1648		477.4557		482.3522		486.8987		491.0443		495.9350		501.3792		506.9087		513.4361		522.6845		527.4172		536.6851		546.7815		556.4289		570.1538		581.2845		595.8611		612.6679		631.6954		653.2072		679.7638		710.2719		741.1239		776.0601		812.1440		840.7990		853.7201		833.8607		782.8178		718.4675		662.6377		618.1276		585.0326		562.3615		541.2467		527.9356		516.3034		508.6558		501.6366		495.6946		489.3153		485.9352		482.0556		478.2521		475.2612		472.4533		470.7982		469.7272		467.3574		463.3365		463.5276		462.0774		461.2543		458.7212		456.8266		456.4211		455.9650		455.0226		454.4573		454.8421		452.0201		453.4915		451.2755		449.6733		450.4830		451.2260		449.8865		449.5016		449.1890		449.0568		446.3325		
 0.160		426.3823		428.4139		430.4934		433.1440		434.6684		437.0224		440.0344		440.3233		442.8766		446.2584		448.5597		451.4595		452.6263		456.5875		459.5307		462.4464		465.3284		471.3929		475.0828		477.4416		482.2926		486.8157		490.9519		495.8035		501.2842		506.7419		513.2278		522.4799		527.2388		536.4311		546.5014		556.1098		569.8175		580.8951		595.3568		612.0455		631.0049		652.3843		678.7954		709.0890		739.7327		774.5109		809.8878		836.8163		850.4638		832.9372		785.9473		723.4424		667.2156		621.8035		587.6159		564.2474		542.7243		528.9631		517.0682		509.2117		502.1366		496.0707		489.6462		486.1853		482.2287		478.3759		475.3857		472.5307		470.9295		469.8852		467.5016		463.4527		463.6022		462.1751		461.3767		458.7181		456.8802		456.4819		456.0568		455.0778		454.4783		454.8730		452.0900		453.6035		451.3352		449.7753		450.5480		451.2852		449.9097		449.5967		449.2739		449.1539		446.3249		
 0.170		426.4029		428.4549		430.5274		433.1656		434.6984		437.0271		440.0344		440.3156		442.9080		446.2114		448.5381		451.4195		452.5985		456.5958		459.5330		462.4075		465.3241		471.3584		475.0007		477.4274		482.2329		486.7327		490.8595		495.6720		501.1892		506.5752		513.0195		522.2752		527.0603		536.1771		546.2213		555.7907		569.4811		580.5056		594.8525		611.4230		630.3144		651.5614		677.8271		707.9061		738.3415		772.9616		808.1305		835.1491		847.8434		832.0136		789.0768		728.4172		671.7934		625.4794		590.1991		566.1333		544.2019		529.9905		517.8331		509.7675		502.6366		496.4469		489.9771		486.4354		482.4018		478.4996		475.5101		472.6080		471.0608		470.0433		467.6458		463.5689		463.6769		462.2729		461.4990		458.7151		456.9338		456.5426		456.1486		455.1330		454.4994		454.9039		452.1599		453.7156		451.3949		449.8772		450.6130		451.3443		449.9329		449.6918		449.3588		449.2510		446.3174		
 0.180		426.4236		428.4958		430.5615		433.1872		434.7283		437.0317		440.0343		440.3079		442.9394		446.1644		448.5166		451.3794		452.5707		456.6041		459.5354		462.3686		465.3198		471.3240		474.9187		477.4133		482.1732		486.6497		490.7670		495.5405		501.0942		506.4084		512.8111		522.0705		526.8819		535.9231		545.9411		555.4717		569.1448		580.1162		594.3482		610.8005		629.6239		650.7386		676.8587		706.7232		736.9503		771.4124		806.3733		833.4820		846.4752		831.2952		792.2063		733.3921		676.3713		629.1552		592.7824		568.0191		545.6794		531.0180		518.5979		510.3234		503.1366		496.8230		490.3080		486.6855		482.5749		478.6234		475.6346		472.6853		471.1921		470.2014		467.7899		463.6851		463.7515		462.3707		461.6214		458.7120		456.9874		456.6033		456.2404		455.1882		454.5205		454.9349		452.2298		453.8276		451.4546		449.9792		450.6780		451.4034		449.9561		449.7869		449.4437		449.3481		446.3098		
 0.190		426.4442		428.5368		430.5955		433.2087		434.7583		437.0363		440.0343		440.3002		442.9708		446.1174		448.4950		451.3394		452.5430		456.6124		459.5378		462.3297		465.3154		471.2895		474.8366		477.3991		482.1135		486.5667		490.6746		495.4090		500.9992		506.2416		512.6028		521.8658		526.7035		535.6691		545.6610		555.1526		568.8084		579.7268		593.8439		610.1780		628.9334		649.9157		675.8904		705.5402		735.5591		769.8631		804.6160		831.8149		845.1071		830.8285		793.8600		738.3670		680.9491		632.8311		595.3657		569.9050		547.1570		532.0455		519.3627		510.8793		503.6366		497.1991		490.6389		486.9355		482.7480		478.7472		475.7591		472.7626		471.3234		470.3594		467.9341		463.8012		463.8262		462.4685		461.7437		458.7090		457.0410		456.6641		456.3322		455.2434		454.5415		454.9658		452.2996		453.9396		451.5143		450.0811		450.7430		451.4626		449.9793		449.8820		449.5286		449.4452		446.3022		
 0.200		426.4649		428.5778		430.6295		433.2303		434.7883		437.0410		440.0343		440.2925		443.0021		446.0704		448.4735		451.2994		452.5152		456.6207		459.5401		462.2908		465.3111		471.2551		474.7546		477.3850		482.0538		486.4837		490.5822		495.2774		500.9041		506.0748		512.3945		521.6611		526.5250		535.4150		545.3809		554.8336		568.4721		579.3373		593.3396		609.5555		628.2430		649.0929		674.9221		704.3573		734.1679		768.3139		802.8587		830.1477		843.7390		830.3619		794.4965		740.8855		685.5270		636.5070		597.9489		571.7908		548.6346		533.0729		520.1276		511.4352		504.1365		497.5752		490.9698		487.1856		482.9211		478.8709		475.8835		472.8400		471.4547		470.5175		468.0782		463.9174		463.9008		462.5663		461.8661		458.7059		457.0946		456.7248		456.4240		455.2986		454.5626		454.9967		452.3695		454.0517		451.5740		450.1831		450.8080		451.5217		450.0026		449.9771		449.6135		449.5423		446.2946		
 0.210		426.4941		428.5984		430.6636		433.2540		434.8183		437.0467		440.0343		440.2848		443.0263		446.0234		448.4519		451.2563		452.4875		456.6290		459.5425		462.2519		465.3068		471.2206		474.6725		477.3708		481.9941		486.4007		490.4898		495.1459		500.8091		505.9080		512.1862		521.4564		526.3466		535.1610		545.1008		554.5145		568.1357		578.9479		592.8353		608.9331		627.5525		648.2700		673.9537		703.1744		732.7767		766.7646		801.1014		828.4806		842.3708		829.8952		795.1329		742.4132		687.8875		639.9896		600.5322		573.6767		550.1121		534.1004		520.8924		511.9910		504.6365		497.9513		491.3007		487.4357		483.0942		478.9947		476.0080		472.9173		471.5860		470.6755		468.2224		464.0336		463.9755		462.6641		461.9884		458.7029		457.1482		456.7856		456.5158		455.3539		454.5837		455.0277		452.4394		454.1637		451.6337		450.2850		450.8730		451.5808		450.0258		450.0722		449.6984		449.6394		446.2871		
 0.220		426.5302		428.6161		430.6895		433.2811		434.8527		437.0670		440.0343		440.2769		443.0187		445.9764		448.4202		451.1972		452.4597		456.6373		459.5366		462.2130		465.2862		471.1740		474.5905		477.3440		481.9351		486.3193		490.3974		495.0144		500.7141		505.7413		511.9778		521.2517		526.1682		534.9070		544.8206		554.1954		567.7994		578.5585		592.3310		608.3106		626.8620		647.4471		672.9854		701.9915		731.3855		765.2154		799.3441		826.8135		841.0027		829.4286		795.7694		743.9410		690.0190		642.1952		602.8385		575.5625		551.5897		535.1279		521.6572		512.5469		505.1365		498.3275		491.6316		487.6858		483.2673		479.1184		476.1325		472.9946		471.7173		470.8336		468.3666		464.1498		464.0501		462.7619		462.1107		458.6998		457.2018		456.8463		456.6076		455.4091		454.6047		455.0586		452.5093		454.2757		451.6934		450.3870		450.9380		451.6400		450.0490		450.1673		449.7834		449.7365		446.2795		
 0.230		426.5662		428.6338		430.7120		433.3083		434.8933		437.0874		440.0344		440.2565		443.0111		445.9372		448.3854		451.1381		452.4122		456.6370		459.5303		462.1891		465.2547		471.1100		474.5229		477.2880		481.8795		486.2494		490.3003		494.8829		500.6191		505.5662		511.7695		521.0470		526.0111		534.6530		544.5344		553.8764		567.4591		578.1690		591.8267		607.6881		626.1715		646.6243		672.0171		700.8086		729.9943		763.6661		797.5868		825.1463		839.6346		828.9619		796.4058		745.4688		692.1504		644.4007		604.8485		577.3052		553.0337		536.1842		522.4220		513.1028		505.6365		498.7036		491.9625		487.9359		483.4404		479.2422		476.2570		473.0720		471.8486		470.9917		468.5107		464.2660		464.1248		462.8597		462.2331		458.6968		457.2554		456.9071		456.6995		455.4643		454.6258		455.0896		452.5792		454.3878		451.7531		450.4889		451.0030		451.6991		450.0722		450.2624		449.8683		449.8336		446.2719		
 0.240		426.6022		428.6515		430.7346		433.3354		434.9339		437.1077		440.0344		440.2360		443.0035		445.9063		448.3505		451.0790		452.3557		456.6282		459.5239		462.1844		465.2232		471.0460		474.4869		477.2321		481.8239		486.1795		490.1667		494.7841		500.5316		505.3847		511.5618		520.8527		525.8618		534.3990		544.2317		553.5680		567.0802		577.7796		591.3224		607.0656		625.4810		645.8014		671.0487		699.6257		728.6031		762.1169		795.8296		823.4792		838.2664		828.4952		797.0423		746.9966		694.2819		646.6063		606.8585		579.0422		554.4444		537.3933		523.4671		513.8073		506.1940		499.1088		492.3098		488.1891		483.6135		479.3659		476.3814		473.1493		471.9799		471.1497		468.6549		464.3822		464.1994		462.9575		462.3554		458.6937		457.3090		456.9678		456.7913		455.5195		454.6469		455.1205		452.6491		454.4998		451.8128		450.5908		451.0680		451.7582		450.0954		450.3575		449.9532		449.9307		446.2644		
 0.250		426.6382		428.6692		430.7572		433.3626		434.9745		437.1280		440.0344		440.2156		442.9959		445.8753		448.3157		451.0200		452.2992		456.6193		459.5176		462.1798		465.1917		470.9821		474.4508		477.1762		481.7684		486.1095		490.0331		494.6885		500.4498		505.2031		511.3546		520.6784		525.7125		534.1165		543.9289		553.2601		566.7012		577.3904		590.8333		606.4431		624.7980		644.9705		670.0673		698.4427		727.2119		760.5676		794.0723		821.8120		836.8983		828.0286		797.6787		748.5244		696.4133		648.8118		608.8684		580.7792		555.8552		538.6024		524.5532		514.6014		506.8266		499.5951		492.7625		488.5664		483.9317		479.6290		476.5195		473.2819		472.0884		471.3031		468.7796		464.5190		464.3003		463.0274		462.4004		458.7310		457.3711		457.0367		456.8571		455.5520		454.6730		455.1403		452.7206		454.5815		451.8527		450.6734		451.1254		451.7934		450.0931		450.4163		450.0068		449.9888		446.2747		
 0.260		426.6742		428.6868		430.7798		433.3897		435.0151		437.1483		440.0345		440.1951		442.9882		445.8443		448.2808		450.9609		452.2426		456.6104		459.5113		462.1751		465.1602		470.9181		474.4148		477.1202		481.7128		486.0396		489.8996		494.5930		500.3680		505.0216		511.1473		520.5041		525.5632		533.8332		543.6262		552.9523		566.3222		577.0016		590.3728		605.8594		624.1170		644.1329		669.0225		697.2358		725.8099		759.0184		792.3150		820.1449		835.5302		827.5619		798.3152		750.0522		698.5448		651.0174		610.8784		582.5162		557.2659		539.8114		525.6392		515.3955		507.4592		500.0814		493.2153		488.9438		484.2602		479.9157		476.6613		473.4351		472.1860		471.4537		468.8911		464.6724		464.4249		463.0688		462.3563		458.8185		457.4449		457.1175		456.8822		455.5473		454.7082		455.1389		452.7953		454.6001		451.8494		450.7117		451.1643		451.7668		450.0218		450.3720		449.9665		449.9237		446.3450		
 0.270		426.7102		428.7045		430.8024		433.4168		435.0557		437.1686		440.0345		440.1747		442.9806		445.8134		448.2459		450.9018		452.1861		456.6016		459.5050		462.1704		465.1288		470.8541		474.3787		477.0643		481.6572		485.9697		489.7660		494.4975		500.2862		504.8400		510.9400		520.3298		525.4140		533.5498		543.3235		552.6444		565.9433		576.6128		589.9124		605.2814		623.4361		643.2954		667.9777		696.0214		724.3796		757.4328		790.5635		818.4778		834.1620		827.0952		798.9516		751.5800		700.6762		653.2229		612.8884		584.2531		558.6767		541.0205		526.7252		516.1896		508.0918		500.5676		493.6681		489.3212		484.5887		480.2024		476.8030		473.5883		472.2835		471.6042		469.0026		464.8258		464.5495		463.1102		462.3122		458.9060		457.5187		457.1982		456.9073		455.5426		454.7434		455.1376		452.8700		454.6187		451.8461		450.7499		451.2032		451.7402		449.9505		450.3277		449.9261		449.8586		446.4152		
 0.280		426.7463		428.7222		430.8250		433.4440		435.0963		437.1889		440.0345		440.1542		442.9730		445.7824		448.2111		450.8427		452.1296		456.5927		459.4986		462.1658		465.0973		470.7902		474.3427		477.0084		481.6016		485.8997		489.6324		494.4020		500.2043		504.6585		510.7327		520.1555		525.2647		533.2665		543.0208		552.3365		565.5643		576.2240		589.4519		604.7035		622.7551		642.4578		666.9329		694.8070		722.9494		755.8423		788.8179		816.8123		832.8612		826.6286		799.5881		753.1078		702.8077		655.4285		614.8983		585.9901		560.0874		542.2296		527.8113		516.9837		508.7245		501.0539		494.1209		489.6986		484.9172		480.4892		476.9447		473.7415		472.3810		471.7548		469.1141		464.9792		464.6741		463.1517		462.2681		458.9936		457.5924		457.2789		456.9325		455.5380		454.7786		455.1362		452.9447		454.6372		451.8428		450.7882		451.2421		451.7136		449.8791		450.2834		449.8858		449.7935		446.4855		
 0.290		426.7823		428.7399		430.8476		433.4711		435.1369		437.2093		440.0346		440.1337		442.9654		445.7515		448.1762		450.7836		452.0730		456.5838		459.4923		462.1611		465.0658		470.7262		474.3066		476.9524		481.5460		485.8298		489.4988		494.3065		500.1225		504.4769		510.5255		519.9812		525.1154		532.9832		542.7180		552.0286		565.1854		575.8352		588.9915		604.1255		622.0741		641.6203		665.8881		693.5926		721.5191		754.2517		787.0723		815.1470		831.7220		826.2641		800.2245		754.6356		704.9391		657.6340		616.9083		587.7271		561.4982		543.4386		528.8973		517.7778		509.3571		501.5402		494.5737		490.0759		485.2456		480.7759		477.0864		473.8946		472.4785		471.9054		469.2256		465.1326		464.7988		463.1931		462.2239		459.0811		457.6662		457.3597		456.9576		455.5333		454.8138		455.1348		453.0194		454.6558		451.8395		450.8265		451.2810		451.6870		449.8078		450.2391		449.8455		449.7283		446.5558		
 0.300		426.8183		428.7576		430.8701		433.4983		435.1775		437.2296		440.0346		440.1133		442.9578		445.7205		448.1413		450.7245		452.0165		456.5749		459.4860		462.1565		465.0343		470.6622		474.2706		476.8965		481.4904		485.7598		489.3653		494.2110		500.0407		504.2954		510.3182		519.8069		524.9662		532.6998		542.4153		551.7207		564.8064		575.4464		588.5310		603.5476		621.3932		640.7827		664.8433		692.3782		720.0888		752.6612		785.3266		813.4817		830.5829		826.0645		800.9150		756.1634		707.0706		659.8396		618.9183		589.4641		562.9089		544.6477		529.9834		518.5719		509.9897		502.0264		495.0264		490.4533		485.5741		481.0627		477.2282		474.0478		472.5760		472.0560		469.3371		465.2859		464.9234		463.2345		462.1798		459.1687		457.7399		457.4404		456.9827		455.5287		454.8490		455.1335		453.0941		454.6744		451.8362		450.8647		451.3198		451.6603		449.7365		450.1948		449.8052		449.6632		446.6260		
 0.310		426.8543		428.7753		430.8927		433.5254		435.2181		437.2499		440.0346		440.0928		442.9502		445.6895		448.1065		450.6655		451.9600		456.5661		459.4797		462.1518		465.0028		470.5983		474.2345		476.8406		481.4348		485.6899		489.2317		494.1155		499.9589		504.1138		510.1109		519.6326		524.8169		532.4165		542.1126		551.4128		564.4275		575.0576		588.0706		602.9696		620.7122		639.9452		663.7985		691.1638		718.6585		751.0707		783.5810		811.8164		829.4438		825.8649		801.8177		757.8685		709.2020		662.0451		620.9282		591.2011		564.3197		545.8568		531.0694		519.3660		510.6223		502.5127		495.4792		490.8307		485.9026		481.3494		477.3699		474.2010		472.6735		472.2066		469.4486		465.4393		465.0480		463.2760		462.1357		459.2562		457.8137		457.5211		457.0078		455.5240		454.8842		455.1321		453.1689		454.6930		451.8330		450.9030		451.3587		451.6337		449.6652		450.1506		449.7648		449.5981		446.6963		
 0.320		426.8903		428.7930		430.9153		433.5526		435.2587		437.2702		440.0347		440.0724		442.9426		445.6586		448.0716		450.6064		451.9034		456.5572		459.4733		462.1471		464.9713		470.5343		474.1985		476.7846		481.3792		485.6200		489.0981		494.0200		499.8770		503.9323		509.9036		519.4583		524.6676		532.1331		541.8099		551.1050		564.0485		574.6687		587.6101		602.3917		620.0312		639.1076		662.7536		689.9494		717.2283		749.4802		781.8354		810.1511		828.3047		825.6653		802.7204		759.5805		711.3335		664.2507		622.9382		592.9381		565.7304		547.0658		532.1555		520.1601		511.2549		502.9990		495.9320		491.2081		486.2311		481.6361		477.5116		474.3542		472.7711		472.3572		469.5601		465.5927		465.1726		463.3174		462.0916		459.3438		457.8875		457.6018		457.0330		455.5193		454.9194		455.1308		453.2436		454.7116		451.8297		450.9413		451.3976		451.6071		449.5939		450.1063		449.7245		449.5329		446.7666		
 0.330		426.9263		428.8107		430.9379		433.5797		435.2993		437.2905		440.0347		440.0519		442.9350		445.6276		448.0368		450.5473		451.8469		456.5483		459.4670		462.1425		464.9399		470.4703		474.1624		476.7287		481.3236		485.5500		488.9645		493.9244		499.7952		503.7507		509.6963		519.2840		524.5183		531.8498		541.5071		550.7971		563.6696		574.2799		587.1497		601.8137		619.3503		638.2701		661.7088		688.7350		715.7980		747.8897		780.0898		808.4858		827.1656		825.4656		803.6232		761.2924		713.4099		666.4167		624.9440		594.6751		567.1412		548.2749		533.2415		520.9542		511.8875		503.4852		496.3848		491.5854		486.5595		481.9229		477.6533		474.5073		472.8686		472.5077		469.6716		465.7461		465.2973		463.3588		462.0475		459.4313		457.9612		457.6826		457.0581		455.5147		454.9546		455.1294		453.3183		454.7302		451.8264		450.9795		451.4365		451.5805		449.5226		450.0620		449.6842		449.4678		446.8368		
 0.340		426.8755		428.7718		430.9129		433.5485		435.2623		437.2860		440.0087		440.0368		442.9276		445.5946		448.0029		450.5006		451.7909		456.5369		459.4607		462.1378		464.9084		470.4063		474.1264		476.6728		481.2680		485.4801		488.8309		493.8289		499.7134		503.5691		509.4891		519.1097		524.3691		531.5665		541.2044		550.4892		563.2906		573.8911		586.6892		601.2358		618.6693		637.4325		660.6640		687.5206		714.3677		746.2992		778.3442		806.8205		826.0265		825.2660		804.5259		763.0043		715.4487		668.5697		626.9107		596.3534		568.5519		549.4839		534.3275		521.7483		512.5202		503.9715		496.8376		491.9628		486.8880		482.2096		477.7951		474.6605		472.9661		472.6583		469.7831		465.8995		465.4219		463.4003		462.0033		459.5188		458.0350		457.7633		457.0832		455.5100		454.9898		455.1280		453.3930		454.7488		451.8231		451.0178		451.4754		451.5539		449.4513		450.0177		449.6439		449.4027		446.9071		
 0.350		426.7964		428.7103		430.8650		433.4838		435.1692		437.2591		439.9528		440.0294		442.9204		445.5569		447.9722		450.5088		451.7388		456.4906		459.4027		462.0744		464.8411		470.3668		474.0513		476.5965		481.1967		485.3943		488.7165		493.7229		499.6220		503.3897		509.2818		518.9354		524.2198		531.2831		540.9017		550.1813		562.9116		573.5023		586.2288		600.6579		617.9883		636.5950		659.6192		686.3062		712.9374		744.7087		776.5986		805.1552		824.8874		825.0664		805.4286		764.7162		717.4876		670.7226		628.8773		598.0235		569.9676		550.6930		535.3629		522.5424		513.1454		504.4578		497.2904		492.3402		487.2165		482.4964		477.9368		474.8137		473.0636		472.8089		469.8946		466.0529		465.5465		463.4417		461.9592		459.6064		458.1088		457.8440		457.1083		455.5053		455.0250		455.1267		453.4677		454.7674		451.8198		451.0561		451.5143		451.5273		449.3799		449.9734		449.6036		449.3375		446.9774		
 0.360		426.7173		428.6488		430.8171		433.4191		435.0760		437.2322		439.8969		440.0220		442.9133		445.5192		447.9415		450.5169		451.6867		456.4444		459.3447		462.0064		464.7677		470.3342		473.9602		476.5076		481.1115		485.2882		488.6375		493.5860		499.4736		503.2954		509.1225		518.7414		524.0464		531.0626		540.6339		549.8810		562.5327		573.1135		585.7683		600.0799		617.3074		635.7574		658.5744		685.0918		711.5072		743.1181		774.8530		803.4899		823.7483		824.8667		806.3314		766.4281		719.5264		672.8755		630.8440		599.6936		571.4557		551.9532		536.3804		523.3382		513.7425		504.9441		497.7431		492.7272		487.5394		482.7779		478.0785		474.9656		473.1611		472.9595		470.0061		466.2063		465.6710		463.4831		461.9151		459.6939		458.1822		457.9248		457.1335		455.5007		455.0602		455.1253		453.5424		454.7860		451.8165		451.0943		451.5532		451.5007		449.3086		449.9291		449.5632		449.2724		447.0477		
 0.370		426.6383		428.5874		430.7692		433.3543		434.9828		437.2052		439.8410		440.0147		442.9061		445.4815		447.9108		450.5250		451.6346		456.3981		459.2867		461.9385		464.6944		470.3016		473.8691		476.4188		481.0262		485.1822		488.5586		493.4490		499.3253		503.2012		508.9682		518.5419		523.8596		530.9054		540.4342		549.6181		562.2088		572.7221		585.3332		599.4963		616.6337		634.9199		657.5296		683.8774		710.0769		741.5276		773.1074		801.8246		822.6092		824.6671		807.2341		768.1400		721.5653		675.0284		632.8106		601.3636		572.9438		553.2225		537.3979		524.1530		514.3396		505.4669		498.2193		493.1250		487.8479		483.0546		478.2315		475.1122		473.2587		473.1101		470.1176		466.3596		465.7688		463.5246		461.9065		459.7815		458.2422		457.9974		457.1584		455.5032		455.0954		455.1239		453.6118		454.8046		451.8211		451.1342		451.5920		451.4741		449.2373		449.8848		449.5229		449.2147		447.1179		
 0.380		426.5592		428.5259		430.7213		433.2896		434.8897		437.1783		439.7851		440.0073		442.8990		445.4437		447.8802		450.5331		451.5825		456.3519		459.2287		461.8706		464.6210		470.2690		473.7780		476.3299		480.9410		485.0762		488.4796		493.3121		499.1770		503.1069		508.8140		518.3424		523.6728		530.7481		540.2345		549.3552		561.8855		572.3302		584.9150		598.9029		616.0116		634.1706		656.6023		682.7066		708.6466		739.9371		771.3618		800.1593		821.4701		824.4675		808.1368		769.8520		723.6041		677.1814		634.7772		603.0337		574.4319		554.4919		538.4154		524.9679		514.9367		506.0029		498.7209		493.5228		488.1564		483.3312		478.4303		475.2589		473.3552		473.2453		470.2435		466.5020		465.8666		463.5625		461.9056		459.8589		458.3022		458.0674		457.1834		455.5141		455.1272		455.1239		453.6780		454.8204		451.8397		451.1748		451.6260		451.4728		449.1677		449.8413		449.4816		449.1604		447.1906		
 0.390		426.4801		428.4644		430.6734		433.2248		434.7965		437.1514		439.7292		439.9999		442.8918		445.4060		447.8495		450.5412		451.5304		456.3056		459.1707		461.8026		464.5477		470.2364		473.6869		476.2411		480.8557		484.9702		488.4007		493.1752		499.0286		503.0126		508.6597		518.1428		523.4860		530.5908		540.0349		549.0923		561.5623		571.9382		584.4967		598.3095		615.3895		633.4377		655.7740		681.7186		707.4145		738.4033		769.6162		798.4940		820.3309		824.2678		809.0396		771.5639		725.6430		679.3343		636.7439		604.7038		575.9200		555.7612		539.4328		525.7827		515.5337		506.5389		499.2225		493.9206		488.4648		483.6078		478.6292		475.4056		473.4515		473.3775		470.3752		466.6397		465.9644		463.5988		461.9046		459.9276		458.3622		458.1375		457.2083		455.5249		455.1517		455.1306		453.7443		454.8341		451.8584		451.2154		451.6537		451.4909		449.1308		449.7991		449.4307		449.1062		447.3104		
 0.400		426.4011		428.4029		430.6255		433.1601		434.7033		437.1244		439.6733		439.9925		442.8847		445.3683		447.8188		450.5493		451.4783		456.2594		459.1127		461.7347		464.4743		470.2038		473.5958		476.1523		480.7705		484.8642		488.3217		493.0382		498.8803		502.9183		508.5055		517.9433		523.2992		530.4335		539.8352		548.8294		561.2390		571.5462		584.0785		597.7161		614.7675		632.7048		654.9457		680.7306		706.2309		736.9711		768.1011		796.8441		819.1918		824.0682		809.9423		773.2758		727.6818		681.4872		638.7105		606.3739		577.4081		557.0305		540.4503		526.5975		516.1308		507.0749		499.7241		494.3184		488.7733		483.8844		478.8280		475.5522		473.5477		473.5096		470.5070		466.7774		466.0621		463.6351		461.9037		459.9964		458.4221		458.2075		457.2333		455.5358		455.1761		455.1373		453.8105		454.8478		451.8771		451.2561		451.6813		451.5091		449.0938		449.7568		449.3797		449.0520		447.4302		
 0.410		426.3220		428.3415		430.5776		433.0954		434.6102		437.0975		439.6174		439.9852		442.8775		445.3305		447.7881		450.5575		451.4262		456.2131		459.0547		461.6668		464.4010		470.1712		473.5048		476.0634		480.6852		484.7581		488.2428		492.9013		498.7319		502.8240		508.3512		517.7438		523.1124		530.2762		539.6355		548.5664		560.9157		571.1542		583.6603		597.1227		614.1454		631.9719		654.1174		679.7427		705.0472		735.5390		766.6228		795.2299		817.8560		823.8686		810.8450		774.9877		729.7207		683.6402		640.6772		608.0439		578.8962		558.2999		541.4678		527.4124		516.7279		507.6110		500.2257		494.7162		489.0817		484.1610		479.0269		475.6989		473.6439		473.6418		470.6388		466.9151		466.1599		463.6715		461.9028		460.0652		458.4821		458.2776		457.2582		455.5466		455.2005		455.1440		453.8768		454.8615		451.8958		451.2967		451.7090		451.5273		449.0569		449.7145		449.3287		448.9977		447.5500		
 0.420		426.2429		428.2800		430.5297		433.0306		434.5170		437.0706		439.5615		439.9778		442.8704		445.2928		447.7574		450.5656		451.3741		456.1669		458.9967		461.5989		464.3276		470.1386		473.4137		475.9746		480.6000		484.6521		488.1638		492.7644		498.5836		502.7298		508.1969		517.5443		522.9257		530.1189		539.4359		548.3035		560.5925		570.7622		583.2421		596.5293		613.5233		631.2390		653.2891		678.7547		703.8636		734.1069		765.1446		793.6157		816.4145		822.8155		811.5572		776.6996		731.7595		685.7931		642.6438		609.7140		580.3843		559.5692		542.4852		528.2272		517.3250		508.1470		500.7273		495.1140		489.3902		484.4377		479.2257		475.8456		473.7402		473.7739		470.7705		467.0528		466.2577		463.7078		461.9018		460.1339		458.5421		458.3476		457.2832		455.5574		455.2250		455.1507		453.9430		454.8752		451.9145		451.3373		451.7366		451.5455		449.0199		449.6723		449.2778		448.9435		447.6699		
 0.430		426.1638		428.2185		430.4818		432.9659		434.4238		437.0436		439.5056		439.9704		442.8632		445.2551		447.7267		450.5737		451.3220		456.1206		458.9387		461.5309		464.2543		470.1060		473.3226		475.8858		480.5147		484.5461		488.0849		492.6274		498.4353		502.6355		508.0427		517.3448		522.7389		529.9617		539.2362		548.0406		560.2692		570.3703		582.8239		595.9359		612.9012		630.5061		652.4608		677.7667		702.6800		732.6747		763.6664		792.0015		814.9730		821.7011		811.2095		777.9702		733.7983		687.9460		644.6105		611.3841		581.8724		560.8385		543.5027		529.0420		517.9221		508.6830		501.2289		495.5118		489.6986		484.7143		479.4246		475.9923		473.8364		473.9061		470.9023		467.1905		466.3555		463.7441		461.9009		460.2027		458.6021		458.4177		457.3081		455.5683		455.2494		455.1574		454.0093		454.8889		451.9332		451.3779		451.7643		451.5636		448.9830		449.6300		449.2268		448.8892		447.7897		
 0.440		426.0848		428.1570		430.4339		432.9012		434.3307		437.0167		439.4497		439.9630		442.8561		445.2174		447.6960		450.5818		451.2699		456.0744		458.8807		461.4630		464.1809		470.0734		473.2315		475.7969		480.4295		484.4401		488.0059		492.4905		498.2869		502.5412		507.8884		517.1453		522.5521		529.8044		539.0365		547.7777		559.9459		569.9783		582.4057		595.3425		612.2791		629.7732		651.6325		676.7787		701.4963		731.2426		762.1881		790.3873		813.5315		820.5867		810.8617		778.5345		735.4219		690.0990		646.5771		613.0542		583.3604		562.1079		544.5202		529.8569		518.5192		509.2190		501.7305		495.9095		490.0071		484.9909		479.6234		476.1389		473.9326		474.0382		471.0340		467.3282		466.4532		463.7804		461.9000		460.2715		458.6621		458.4877		457.3331		455.5791		455.2738		455.1641		454.0755		454.9025		451.9519		451.4185		451.7919		451.5818		448.9460		449.5877		449.1758		448.8350		447.9095		
 0.450		426.0057		428.0999		430.3860		432.8364		434.2375		436.9898		439.3938		439.9557		442.8490		445.1796		447.6653		450.5899		451.2178		456.0281		458.8227		461.3951		464.1076		470.0408		473.1404		475.7081		480.3442		484.3341		487.9270		492.3536		498.1386		502.4469		507.7342		516.9458		522.3653		529.6471		538.8368		547.5148		559.6227		569.5863		581.9875		594.7491		611.6571		629.0403		650.8042		675.7908		700.3127		729.8105		760.7099		788.7731		812.0900		819.4722		810.5140		779.0988		736.7492		692.0114		648.5291		614.7243		584.8485		563.3772		545.5376		530.6717		519.1163		509.7550		502.2321		496.3073		490.3155		485.2675		479.8222		476.2856		474.0289		474.1704		471.1658		467.4659		466.5510		463.8168		461.8990		460.3402		458.7221		458.5578		457.3580		455.5900		455.2983		455.1708		454.1417		454.9162		451.9706		451.4591		451.8196		451.6000		448.9091		449.5454		449.1249		448.7807		448.0293		
 0.460		425.9266		428.0652		430.3381		432.7717		434.1492		436.9628		439.3434		439.9386		442.8418		445.1564		447.6364		450.5817		451.1657		455.9712		458.7651		461.3467		464.0342		470.0081		473.0493		475.6193		480.2590		484.2280		487.8480		492.2166		497.9903		502.3526		507.5799		516.7463		522.1785		529.4898		538.6372		547.2519		559.2994		569.1943		581.5693		594.1557		611.0350		628.3075		649.9759		674.8028		699.1290		728.3784		759.2317		787.1589		810.6485		818.3578		810.1663		779.6631		738.0766		693.8811		650.4060		616.4930		586.3390		564.6466		546.5551		531.4865		519.7134		510.2910		502.7338		496.7051		490.6240		485.5442		480.0211		476.4323		474.1251		474.3025		471.2976		467.6036		466.6488		463.8531		461.8981		460.4090		458.7820		458.6278		457.3829		455.6008		455.3227		455.1775		454.2080		454.9299		451.9893		451.4997		451.8472		451.6182		448.8721		449.5032		449.0739		448.7265		448.1491		
 0.470		425.8476		428.0305		430.2876		432.7007		434.0647		436.9319		439.2948		439.9147		442.8191		445.1352		447.6134		450.5588		451.1168		455.8966		458.7091		461.3399		463.9632		469.9755		472.9567		475.5304		480.1737		484.1220		487.7691		492.1047		497.8462		502.2585		507.4257		516.5503		521.9917		529.3325		538.4375		546.9890		558.9761		568.8023		581.1511		593.5623		610.4129		627.5746		649.1476		673.8148		697.9454		726.9462		757.7534		785.5447		809.2070		817.2434		809.8186		780.2274		739.4040		695.7508		652.2828		618.3403		588.0527		566.0066		547.6097		532.3014		520.3105		510.8270		503.2354		497.1029		490.9324		485.8208		480.2199		476.5789		474.2213		474.4347		471.4293		467.7413		466.7466		463.8894		461.8972		460.4778		458.8420		458.6979		457.4079		455.6117		455.3471		455.1843		454.2742		454.9436		452.0080		451.5403		451.8749		451.6363		448.8351		449.4609		449.0229		448.6722		448.2689		
 0.480		425.7686		427.9958		430.2369		432.6264		433.9803		436.9003		439.2462		439.8908		442.7798		445.1141		447.5903		450.5360		451.0815		455.8220		458.6531		461.3331		463.9129		469.9218		472.8638		475.4220		480.0803		484.0248		487.7084		492.0073		497.7080		502.1648		507.2768		516.3712		521.8049		529.1531		538.2213		546.7260		558.6529		568.4104		580.7329		592.9689		609.7908		626.8417		648.3193		672.8268		696.7618		725.5141		756.2752		783.9305		807.7655		816.1290		809.4709		780.7917		740.7314		697.6206		654.1597		620.1876		589.7664		567.4375		548.8301		533.3659		521.0716		511.4220		503.7414		497.5007		491.2409		486.0974		480.4188		476.7256		474.3176		474.5668		471.5611		467.8790		466.8443		463.9258		461.8962		460.5465		458.9020		458.7679		457.4328		455.6225		455.3716		455.1910		454.3405		454.9573		452.0267		451.5809		451.9025		451.6545		448.7982		449.4186		448.9720		448.6180		448.3887		
 0.490		425.6896		427.9611		430.1863		432.5521		433.8958		436.8687		439.1976		439.8670		442.7405		445.0929		447.5673		450.5132		451.0463		455.7474		458.5971		461.3262		463.8627		469.8680		472.7709		475.3067		479.9802		483.9402		487.6580		491.9100		497.5698		502.0712		507.1609		516.1921		521.6225		528.9647		538.0010		546.4631		558.3290		568.0184		580.3076		592.3767		609.1688		626.1088		647.4910		671.8389		695.5781		724.0820		754.7970		782.3163		806.3240		815.0146		809.1232		781.3560		742.0588		699.4903		656.0366		622.0349		591.4800		568.8684		550.0506		534.4771		521.9653		512.1525		504.2907		497.9729		491.6410		486.4333		480.7248		476.9469		474.4588		474.7097		471.6905		468.0142		466.9427		463.9621		461.8953		460.6153		458.9620		458.8380		457.4578		455.6333		455.3960		455.1977		454.4067		454.9710		452.0454		451.6215		451.9302		451.6727		448.7612		449.3764		448.9210		448.5637		448.5085		
 0.500		425.6106		427.9264		430.1356		432.4779		433.8114		436.8371		439.1490		439.8431		442.7013		445.0718		447.5443		450.4904		451.0111		455.6729		458.5411		461.3194		463.8125		469.8143		472.6780		475.1914		479.8801		483.8556		487.6075		491.8127		497.4315		501.9776		507.0450		516.0130		521.4454		528.7762		537.7807		546.2194		557.9878		567.6263		579.8816		591.7848		608.5529		625.3759		646.6732		670.8094		694.3945		722.6499		753.3187		780.7021		804.8825		813.9002		808.7754		781.9204		743.3862		701.3600		657.9134		623.8822		593.1937		570.2993		551.2710		535.5883		522.8589		512.8830		504.8399		498.4516		492.0702		486.8050		481.1362		477.2803		474.7052		474.8908		471.8066		468.1217		467.0671		464.0968		462.0408		460.7293		459.0529		458.9788		457.5727		455.7976		455.5603		455.2136		454.4016		454.9804		452.0701		451.6504		451.9439		451.7090		448.7982		449.3924		448.9245		448.5630		448.5934		
 0.510		425.5315		427.8917		430.0849		432.4036		433.7269		436.8055		439.1004		439.8192		442.6620		445.0506		447.5212		450.4676		450.9758		455.5983		458.4851		461.3125		463.7623		469.7605		472.5851		475.0761		479.7800		483.7709		487.5571		491.7153		497.2933		501.8839		506.9290		515.8340		521.2684		528.5878		537.5603		545.9772		557.6466		567.2341		579.4556		591.1930		607.9449		624.7188		645.8572		669.7645		693.2371		721.2177		751.8250		779.0879		803.4410		812.7858		808.4277		782.4847		744.7136		703.2298		659.7903		625.7295		594.9073		571.7302		552.4915		536.6996		523.7525		513.6134		505.3892		498.9303		492.4994		487.1767		481.5475		477.6136		474.9516		475.0718		471.9227		468.2293		467.1916		464.2350		462.1999		460.8498		459.1499		459.1368		457.7138		456.0145		455.7804		455.2339		454.3597		454.9873		452.0986		451.6715		451.9475		451.7598		448.8994		449.4634		448.9836		448.6215		448.6363		
 0.520		425.4525		427.8570		430.0342		432.3293		433.6425		436.7739		439.0518		439.7953		442.6227		445.0294		447.4982		450.4448		450.9406		455.5237		458.4291		461.3057		463.7121		469.7068		472.4921		474.9608		479.6799		483.6863		487.5067		491.6180		497.1551		501.7903		506.8131		515.6549		521.0913		528.3993		537.3400		545.7349		557.3054		566.8420		579.0296		590.6012		607.3368		624.0685		645.0413		668.7197		692.1276		719.8315		750.2956		777.5012		801.9995		811.6714		808.0800		783.0490		746.0410		705.0995		661.6671		627.5768		596.6210		573.1611		553.7119		537.8108		524.6461		514.3439		505.9385		499.4089		492.9286		487.5484		481.9589		477.9470		475.1980		475.2529		472.0388		468.3368		467.3160		464.3733		462.3590		460.9702		459.2469		459.2948		457.8548		456.2314		456.0005		455.2542		454.3178		454.9943		452.1272		451.6927		451.9511		451.8107		449.0006		449.5344		449.0428		448.6799		448.6793		
 0.530		425.3735		427.8223		429.9835		432.2550		433.5580		436.7423		439.0032		439.7715		442.5834		445.0083		447.4751		450.4220		450.9054		455.4491		458.3730		461.2988		463.6619		469.6530		472.3992		474.8455		479.5798		483.6017		487.4563		491.5206		497.0168		501.6966		506.6972		515.4758		520.9142		528.2109		537.1197		545.4927		556.9642		566.4499		578.6036		590.0093		606.7287		623.4183		644.2254		667.6749		691.0181		718.4614		748.7663		775.9205		800.5580		810.6952		807.7323		783.6133		747.3684		706.9692		663.5440		629.4241		598.3346		574.5920		554.9324		538.9220		525.5398		515.0744		506.4877		499.8876		493.3578		487.9200		482.3703		478.2804		475.4445		475.4339		472.1548		468.4444		467.4405		464.5116		462.5181		461.0907		459.3439		459.4528		457.9959		456.4482		456.2207		455.2744		454.2760		455.0013		452.1557		451.7138		451.9548		451.8616		449.1018		449.6054		449.1019		448.7384		448.7222		
 0.540		425.2945		427.7876		429.9329		432.1807		433.4735		436.7107		438.9546		439.7476		442.5442		444.9871		447.4521		450.3992		450.8701		455.3745		458.3170		461.2920		463.6117		469.5992		472.3063		474.7302		479.4798		483.5170		487.4058		491.4233		496.8786		501.6030		506.5813		515.2967		520.7372		528.0224		536.8994		545.2504		556.6230		566.0577		578.1776		589.4175		606.1207		622.7681		643.4095		666.6301		689.9086		717.0914		747.2370		774.3399		799.0762		809.7691		807.4984		784.2027		748.6957		708.8390		665.4208		631.2714		600.0483		576.0229		556.1528		540.0333		526.4334		515.8048		507.0370		500.3663		493.7870		488.2917		482.7816		478.6137		475.6909		475.6149		472.2709		468.5519		467.5650		464.6498		462.6773		461.2112		459.4409		459.6108		458.1370		456.6651		456.4408		455.2947		454.2341		455.0082		452.1842		451.7350		451.9584		451.9124		449.2030		449.6764		449.1611		448.7969		448.7652		
 0.550		425.2155		427.7529		429.8822		432.1065		433.3891		436.6791		438.9060		439.7237		442.5049		444.9660		447.4291		450.3764		450.8349		455.2999		458.2610		461.2851		463.5614		469.5455		472.2134		474.6149		479.3797		483.4324		487.3554		491.3259		496.7403		501.5094		506.4654		515.1177		520.5601		527.8340		536.6791		545.0082		556.2818		565.6656		577.7517		588.8256		605.5126		622.1179		642.5936		665.5852		688.7991		715.7214		745.7077		772.7593		797.5894		808.8429		807.3131		784.9620		750.0791		710.7087		667.2977		633.1187		601.7620		577.4538		557.3733		541.1445		527.3270		516.5353		507.5863		500.8450		494.2162		488.6634		483.1930		478.9471		475.9373		475.7960		472.3870		468.6595		467.6894		464.7881		462.8364		461.3317		459.5379		459.7688		458.2780		456.8820		456.6609		455.3149		454.1922		455.0152		452.2127		451.7561		451.9620		451.9633		449.3042		449.7474		449.2202		448.8553		448.8081		
 0.560		425.1364		427.7182		429.8315		432.0322		433.3046		436.6475		438.8574		439.6998		442.4656		444.9448		447.4060		450.3536		450.7997		455.2254		458.2050		461.2783		463.5112		469.4917		472.1205		474.4996		479.2796		483.3478		487.3050		491.2286		496.6021		501.4157		506.3494		514.9386		520.3830		527.6456		536.4588		544.7659		555.9406		565.2734		577.3257		588.2338		604.9046		621.4677		641.7776		664.5404		687.6896		714.3514		744.1783		771.1786		796.1026		807.9168		807.1278		785.7213		751.5376		712.5784		669.1746		634.9660		603.4756		578.8847		558.5937		542.2557		528.2206		517.2657		508.1355		501.3237		494.6454		489.0350		483.6043		479.2805		476.1837		475.9770		472.5031		468.7670		467.8139		464.9263		462.9955		461.4522		459.6349		459.9268		458.4191		457.0988		456.8810		455.3352		454.1503		455.0222		452.2412		451.7772		451.9656		452.0141		449.4054		449.8184		449.2793		448.9138		448.8510		
 0.570		425.0574		427.6835		429.7808		431.9579		433.2202		436.6159		438.8088		439.6759		442.4263		444.9237		447.3830		450.3308		450.7645		455.1508		458.1490		461.2714		463.4610		469.4380		472.0276		474.3843		479.1795		483.2631		487.2546		491.1312		496.4639		501.3221		506.2335		514.7595		520.2060		527.4571		536.2385		544.5236		555.5994		564.8813		576.8997		587.6420		604.2965		620.8175		640.9617		663.4956		686.5801		712.9814		742.6490		769.5980		794.6158		806.9907		806.9425		786.4805		752.9961		714.3793		671.0514		636.8091		605.1893		580.3156		559.8142		543.3669		529.1143		517.9962		508.6848		501.8024		495.0746		489.4067		484.0157		479.6139		476.4302		476.1581		472.6192		468.8746		467.9383		465.0646		463.1546		461.5726		459.7319		460.0848		458.5602		457.3157		457.1012		455.3554		454.1085		455.0291		452.2697		451.7984		451.9693		452.0650		449.5066		449.8894		449.3385		448.9723		448.8940		
 0.580		425.0032		427.6590		429.7373		431.8862		433.1357		436.5843		438.7602		439.6521		442.3871		444.9025		447.3599		450.3079		450.7292		455.0762		458.0930		461.2646		463.4108		469.3842		471.9347		474.2690		479.0794		483.1785		487.2041		491.0339		496.3256		501.2285		506.1176		514.5805		520.0289		527.2687		536.0182		544.2814		555.2582		564.4892		576.4737		587.0501		603.6884		620.1673		640.1458		662.4508		685.4707		711.6114		741.1197		768.0174		793.1290		806.0646		806.7573		787.2398		754.4545		716.1666		672.9726		638.6280		606.8542		581.7302		561.0346		544.4782		530.0079		518.7267		509.2341		502.2811		495.5038		489.7784		484.4271		479.9472		476.6766		476.3391		472.7353		468.9821		468.0628		465.2029		463.3137		461.6931		459.8289		460.2428		458.7012		457.5325		457.3213		455.3757		454.0666		455.0361		452.2982		451.8195		451.9729		452.1158		449.6079		449.9604		449.3976		449.0308		448.9369		
 0.590		425.0957		427.7210		429.7965		431.9466		433.1852		436.6278		438.7872		439.6605		442.3781		444.8982		447.3591		450.2827		450.7166		455.0172		458.0409		461.2392		463.3600		469.3301		471.8471		474.1544		478.9793		483.0939		487.1537		490.9365		496.1874		501.1348		506.0017		514.4014		519.8518		527.0802		535.7979		544.0391		554.9170		564.0970		576.0477		586.4583		603.0804		619.5171		639.3299		661.4059		684.3612		710.2414		739.5904		766.4367		791.6422		805.1384		806.5720		787.9991		755.9130		717.9539		674.9025		640.4468		608.5144		583.1255		562.2490		545.5592		530.9015		519.4571		509.7833		502.7597		495.9330		490.1501		484.8384		480.2806		476.9230		476.5202		472.8514		469.0897		468.1873		465.3411		463.4729		461.8136		459.9259		460.4008		458.8423		457.7494		457.5414		455.3959		454.0247		455.0431		452.3267		451.8407		451.9765		452.1667		449.7091		450.0314		449.4568		449.0892		448.9798		
 0.600		425.1882		427.7830		429.8557		432.0070		433.2396		436.6787		438.8269		439.6772		442.3798		444.9015		447.3713		450.2558		450.7254		454.9766		457.9948		461.1743		463.3076		469.2742		471.8078		474.1127		478.9127		483.0200		487.0431		490.8118		496.0646		501.0337		505.8650		514.2214		519.6738		526.8918		535.5776		543.7969		554.5757		563.7049		575.6217		585.8665		602.4723		618.8668		638.5140		660.3611		683.2517		708.8714		738.0611		764.8561		790.1554		804.2123		806.3867		788.7584		757.3715		719.7412		676.8324		642.2657		610.1747		584.5208		563.4589		546.6044		531.7951		520.1771		510.3326		503.2384		496.3622		490.5209		485.2498		480.6140		477.1694		476.7012		472.9674		469.1972		468.3117		465.4794		463.6320		461.9341		460.0229		460.5588		458.9834		457.9663		457.7615		455.4162		453.9828		455.0500		452.3552		451.8618		451.9801		452.2175		449.8103		450.1023		449.5159		449.1477		449.0228		
 0.610		425.2807		427.8449		429.9149		432.0674		433.2939		436.7295		438.8667		439.6940		442.3814		444.9049		447.3835		450.2288		450.7342		454.9360		457.9486		461.1094		463.2551		469.2183		471.7685		474.0711		478.8490		482.9483		486.9124		490.6727		495.9546		500.9228		505.6830		514.0376		519.4827		526.6761		535.3295		543.5352		554.2535		563.3137		575.1999		585.2746		601.8643		618.2166		637.6981		659.3163		682.1422		707.5014		736.5317		763.2755		788.6686		803.2862		806.2014		789.5177		758.8300		721.5285		678.7623		644.0845		611.8349		585.9161		564.6689		547.6496		532.7187		520.8942		510.8836		503.7265		496.7947		490.8684		485.6611		480.9473		477.4158		476.8650		473.0835		469.2940		468.4362		465.6040		463.7870		462.0546		460.1199		460.7168		459.1245		458.1831		457.9687		455.4560		453.9410		455.0570		452.3837		451.8829		451.9837		452.2684		449.9115		450.1733		449.5751		449.2062		449.0657		
 0.620		425.3731		427.9069		429.9742		432.1278		433.3483		436.7804		438.9065		439.7107		442.3831		444.9083		447.3958		450.2018		450.7429		454.8954		457.9025		461.0446		463.2026		469.1625		471.7291		474.0295		478.7853		482.8766		486.7816		490.5336		495.8447		500.8119		505.5010		513.8539		519.2915		526.4580		535.0731		543.2611		553.9554		562.9250		574.8386		584.8655		601.3476		617.6112		636.8941		658.2715		681.0327		706.1313		735.0024		761.6949		787.1818		802.3601		806.0162		790.2770		760.2885		723.3158		680.6922		645.9034		613.4952		587.3114		565.8788		548.6948		533.6545		521.6113		511.4416		504.2360		497.2518		491.2159		486.0361		481.3119		477.6759		477.0196		473.1996		469.3723		468.5606		465.7020		463.9306		462.1750		460.2169		460.8748		459.2655		458.4000		458.1425		455.5979		453.8991		455.0640		452.4122		451.9041		451.9927		452.3192		450.0265		450.2443		449.6003		449.2673		449.1042		
 0.630		425.4656		427.9689		430.0334		432.1881		433.4027		436.8313		438.9463		439.7275		442.3848		444.9117		447.4080		450.1748		450.7517		454.8548		457.8564		460.9797		463.1502		469.1066		471.6898		473.9879		478.7216		482.8049		486.6509		490.3944		495.7348		500.7010		505.3189		513.6701		519.1003		526.2399		534.8167		542.9870		553.6574		562.5364		574.4774		584.4865		600.8849		617.0813		636.2131		657.3565		679.9936		704.7683		733.4731		760.1142		785.6950		801.4339		805.8309		791.0363		761.7469		725.1030		682.6221		647.7222		615.1555		588.7067		567.0887		549.7399		534.5902		522.3284		511.9997		504.7456		497.7088		491.5635		486.4082		481.6893		477.9626		477.1742		473.2971		469.4507		468.6488		465.8001		464.0742		462.2956		460.3139		461.0501		459.4066		458.6168		458.3162		455.7397		453.8470		455.0733		452.4416		451.9136		452.0026		452.3470		450.1417		450.3054		449.6236		449.3335		449.1416		
 0.640		425.5581		428.0309		430.0926		432.2485		433.4570		436.8822		438.9861		439.7442		442.3865		444.9151		447.4202		450.1478		450.7605		454.8142		457.8103		460.9148		463.0977		469.0507		471.6505		473.9463		478.6579		482.7332		486.5201		490.2553		495.6249		500.5901		505.1369		513.4863		518.9092		526.0218		534.5603		542.7129		553.3593		562.1477		574.1161		584.1076		600.4222		616.5515		635.5321		656.4797		679.0506		703.6121		732.0971		758.5611		784.2081		800.5078		805.6456		791.7955		763.2054		726.8903		684.5521		649.5411		616.8157		590.1020		568.2986		550.7851		535.5260		523.0454		512.5578		505.2552		498.1658		491.9110		486.7803		482.0667		478.2493		477.3287		473.3942		469.5290		468.7284		465.8981		464.2179		462.4825		460.4109		461.2480		459.5477		458.7963		458.4899		455.8816		453.7909		455.0841		452.4711		451.9181		452.0125		452.3649		450.2569		450.3597		449.6469		449.3996		449.1789		
 0.650		425.6506		428.0929		430.1519		432.3089		433.5114		436.9331		439.0259		439.7610		442.3882		444.9185		447.4324		450.1208		450.7692		454.7735		457.7642		460.8499		463.0452		468.9948		471.6112		473.9047		478.5942		482.6615		486.3894		490.1162		495.5150		500.4792		504.9549		513.3026		518.7180		525.8037		534.3039		542.4388		553.0612		561.7591		573.7549		583.7286		599.9596		616.0216		634.8511		655.6030		678.1076		702.4560		730.8290		757.2360		782.8067		799.5817		805.4603		792.5548		764.6639		728.6776		686.4820		651.3599		618.4760		591.4973		569.5086		551.8303		536.4618		523.7625		513.1159		505.7647		498.6228		492.2585		487.1524		482.4441		478.5359		477.4833		473.4913		469.6074		468.8079		465.9961		464.3615		462.6694		460.5079		461.4458		459.6887		458.9500		458.6636		456.0235		453.7347		455.0949		452.5006		451.9227		452.0225		452.3827		450.3721		450.4140		449.6701		449.4657		449.2163		
 0.660		425.7430		428.1549		430.2111		432.3693		433.5658		436.9840		439.0657		439.7777		442.3899		444.9218		447.4446		450.0938		450.7780		454.7329		457.7181		460.7850		462.9928		468.9390		471.5718		473.8630		478.5306		482.5898		486.2587		489.9770		495.4050		500.3683		504.7729		513.1188		518.5268		525.5856		534.0475		542.1646		552.7632		561.3704		573.3936		583.3496		599.4969		615.4917		634.1701		654.7262		677.1646		701.2999		729.5609		755.9110		781.4712		798.3900		805.1308		793.3141		766.1224		730.4649		688.4119		653.1788		620.1363		592.8926		570.7185		552.8754		537.3976		524.4796		513.6740		506.2743		499.0798		492.6061		487.5244		482.8215		478.8226		477.6379		473.5884		469.6857		468.8874		466.0942		464.5051		462.8563		460.6174		461.6436		459.8298		459.1037		458.8373		456.1654		453.6786		455.1057		452.5302		451.9272		452.0324		452.4006		450.4873		450.4683		449.6934		449.5318		449.2537		
 0.670		425.8355		428.2169		430.2703		432.4297		433.6202		437.0348		439.1055		439.7945		442.3915		444.9252		447.4568		450.0668		450.7868		454.6923		457.6719		460.7202		462.9403		468.8831		471.5325		473.8214		478.4669		482.5181		486.1279		489.8379		495.2951		500.2574		504.5909		512.9350		518.3356		525.3675		533.7911		541.8905		552.4651		560.9818		573.0323		582.9707		599.0342		614.9618		633.4891		653.8495		676.2216		700.1437		728.2927		754.5859		780.1356		797.1815		804.4689		793.4755		767.5809		732.2522		690.3418		654.9976		621.7965		594.2879		571.9284		553.9206		538.3334		525.1967		514.2321		506.7839		499.5368		492.9536		487.8965		483.1989		479.1093		477.7925		473.6855		469.7641		468.9670		466.1922		464.6488		463.0432		460.7341		461.8414		459.9687		459.2575		459.0110		456.3073		453.6225		455.1165		452.5597		451.9318		452.0423		452.4184		450.6025		450.5227		449.7167		449.5980		449.2911		
 0.680		425.9280		428.2789		430.3295		432.4900		433.6745		437.0857		439.1452		439.8112		442.3932		444.9286		447.4690		450.0398		450.7955		454.6517		457.6258		460.6553		462.8878		468.8272		471.4932		473.7798		478.4032		482.4463		485.9972		489.6988		495.1852		500.1465		504.4089		512.7512		518.1445		525.1495		533.5347		541.6164		552.1671		560.5931		572.6711		582.5917		598.5715		614.4319		632.8081		652.9727		675.2786		698.9876		727.0246		753.2609		778.8000		795.9730		803.8070		793.2211		768.2660		733.9442		692.2717		656.8165		623.4568		595.6832		573.1383		554.9658		539.2692		525.9137		514.7901		507.2934		499.9938		493.3011		488.2686		483.5763		479.3960		477.9471		473.7826		469.8424		469.0465		466.2903		464.7924		463.2301		460.8508		462.0392		460.1061		459.4112		459.1847		456.4492		453.5664		455.1272		452.5892		451.9363		452.0522		452.4363		450.7177		450.5770		449.7400		449.6641		449.3284		
 0.690		426.0205		428.3409		430.3888		432.5504		433.7289		437.1366		439.1850		439.8280		442.3949		444.9320		447.4813		450.0129		450.8043		454.6111		457.5797		460.5904		462.8354		468.7713		471.4538		473.7382		478.3395		482.3746		485.8664		489.5596		495.0753		500.0356		504.2268		512.5675		517.9533		524.9314		533.2783		541.3423		551.8690		560.2045		572.3098		582.2127		598.1088		613.9020		632.1271		652.0960		674.3356		697.8315		725.7565		751.9358		777.4645		794.7645		803.1451		792.9668		768.8095		735.0152		693.9270		658.6353		625.1170		597.0785		574.3482		556.0109		540.2050		526.6308		515.3482		507.8030		500.4508		493.6487		488.6407		483.9537		479.6826		478.1016		473.8797		469.9208		469.1260		466.3883		464.9360		463.4170		460.9675		462.2371		460.2434		459.5650		459.3584		456.5911		453.5103		455.1380		452.6187		451.9409		452.0621		452.4541		450.8329		450.6313		449.7633		449.7302		449.3658		
 0.700		426.1130		428.3936		430.4444		432.6086		433.7833		437.1875		439.2248		439.8447		442.3966		444.9354		447.4935		449.9859		450.8130		454.5705		457.5336		460.5255		462.7829		468.7155		471.4145		473.6966		478.2758		482.3029		485.7357		489.4205		494.9653		499.9246		504.0448		512.3837		517.7621		524.7133		533.0219		541.0682		551.5710		559.8158		571.9486		581.8337		597.6461		613.3721		631.4461		651.2193		673.3926		696.6753		724.4884		750.6108		776.1289		793.5561		802.4832		792.7124		769.3531		736.0862		695.2467		660.1728		626.7246		598.4737		575.5582		557.0561		541.1408		527.3479		515.9063		508.3125		500.9078		493.9962		489.0128		484.3311		479.9693		478.2562		473.9768		469.9991		469.2056		466.4863		465.0797		463.6039		461.0843		462.4349		460.3807		459.7187		459.5322		456.7330		453.4541		455.1488		452.6482		451.9454		452.0721		452.4720		450.9481		450.6857		449.7866		449.7963		449.4032		
 0.710		426.2051		428.4327		430.4911		432.6481		433.8407		437.2076		439.2646		439.8615		442.3983		444.9387		447.5057		449.9777		450.7850		454.5298		457.4875		460.4606		462.7304		468.6596		471.3752		473.6557		478.2091		482.2299		485.6049		489.2814		494.8554		499.8137		503.8628		512.1999		517.5710		524.4952		532.7655		540.7940		551.2729		559.4272		571.5873		581.4548		597.1834		612.8422		630.7650		650.3425		672.4496		695.5192		723.2203		749.2858		774.7934		792.3476		801.8214		792.4580		769.8966		737.1572		696.5663		661.6339		628.1150		599.8211		576.7471		558.1013		542.0766		528.0650		516.4644		508.8221		501.3648		494.3437		489.3849		484.7085		480.2560		478.4108		474.0739		470.0775		469.2851		466.5844		465.2233		463.7908		461.2010		462.6327		460.5181		459.8725		459.7059		456.8749		453.3980		455.1596		452.6777		451.9500		452.0820		452.4898		451.0633		450.7400		449.8099		449.8625		449.4406		
 0.720		426.2924		428.4717		430.5379		432.6875		433.9369		437.2240		439.2875		439.8921		442.4133		444.9472		447.4921		449.9817		450.7539		454.4780		457.4483		460.4045		462.6704		468.6042		471.3340		473.6173		478.1349		482.1553		485.4742		489.1423		494.7455		499.7028		503.6808		512.0007		517.3720		524.2771		532.5091		540.5131		550.9749		559.0386		571.2261		581.0758		596.7208		612.3123		630.0840		649.4658		671.5066		694.3631		721.9522		747.9607		773.4578		791.1391		801.1595		792.2036		770.4401		738.2282		697.8860		663.0950		629.5055		601.1469		577.8711		559.0673		542.9825		528.7915		517.0225		509.3317		501.8218		494.6913		489.7570		485.0859		480.5427		478.5654		474.1710		470.1558		469.3646		466.6824		465.3669		463.9777		461.3177		462.8305		460.6554		460.0262		459.8796		457.0168		453.3419		455.1704		452.7073		451.9545		452.0919		452.5077		451.1786		450.7943		449.8332		449.9286		449.4780		
 0.730		426.3798		428.5107		430.5847		432.7270		434.0331		437.2403		439.3026		439.9232		442.4356		444.9601		447.4744		449.9856		450.7228		454.4181		457.4156		460.3624		462.5905		468.5507		471.2878		473.5789		478.0608		482.0806		485.3434		489.0039		494.6389		499.5835		503.4994		511.7903		517.1657		524.0607		532.2527		540.2206		550.6654		558.6499		570.8518		580.6893		596.2581		611.7824		629.4030		648.5890		670.5636		693.2069		720.6840		746.6357		772.1222		789.9306		800.4976		791.9493		770.9836		739.2992		699.2056		664.5561		630.8960		602.4728		578.9951		560.0186		543.8575		529.5585		517.7028		509.8784		502.3194		495.0611		490.1359		485.4631		480.8294		478.7199		474.2681		470.2342		469.4442		466.7804		465.5106		464.1646		461.4344		463.0283		460.7928		460.1799		460.0533		457.1587		453.2858		455.1812		452.7368		451.9591		452.1018		452.5255		451.2938		450.8487		449.8565		449.9947		449.5153		
 0.740		426.4672		428.5498		430.6314		432.7665		434.1293		437.2567		439.3177		439.9543		442.4579		444.9729		447.4567		449.9896		450.6918		454.3583		457.3830		460.3203		462.5106		468.4972		471.2416		473.5405		477.9866		482.0060		485.2126		488.8665		494.5353		499.4549		503.3272		511.5799		516.9593		523.8547		532.0189		539.9282		550.3492		558.2633		570.4555		580.2755		595.7954		611.2469		628.7220		647.7123		669.6206		692.0508		719.4159		745.3106		770.7867		788.7221		799.8357		791.6949		771.5272		740.3702		700.5253		666.0172		632.2865		603.7987		580.1191		560.9700		544.7325		530.3256		518.3927		510.4415		502.8595		495.4808		490.5509		485.8245		481.0998		478.8893		474.4090		470.3420		469.5613		466.8873		465.6542		464.3186		461.5333		463.1855		460.9269		460.3261		460.2203		457.3006		453.2297		455.1919		452.7663		451.9636		452.1118		452.5434		451.4090		450.9030		449.8798		450.0608		449.5527		
 0.750		426.5546		428.5888		430.6782		432.8059		434.2255		437.2731		439.3327		439.9854		442.4802		444.9858		447.4390		449.9936		450.6607		454.2984		457.3503		460.2782		462.4307		468.4437		471.1954		473.5021		477.9124		481.9313		485.0817		488.7291		494.4317		499.3263		503.1550		511.3695		516.7530		523.6488		531.7927		539.6357		550.0330		557.8855		570.0591		579.8617		595.3510		610.7099		628.0562		646.8355		668.6950		690.8947		718.1478		743.9856		769.4511		787.5137		799.1738		791.4405		772.0707		741.4413		701.8449		667.4783		633.6770		605.1245		581.2431		561.9214		545.6075		531.0926		519.0826		511.0047		503.3995		495.9005		490.9659		486.1859		481.3680		479.0631		474.5715		470.4716		469.7176		467.0068		465.7978		464.3871		461.5697		463.1492		461.0400		460.3891		460.2248		457.3146		453.3043		455.2440		452.8638		452.0495		452.1719		452.5979		451.4895		450.9198		449.9347		450.0829		449.5892		
 0.760		426.6420		428.6279		430.7249		432.8454		434.3217		437.2895		439.3478		440.0164		442.5024		444.9987		447.4213		449.9976		450.6296		454.2386		457.3176		460.2362		462.3508		468.3902		471.1492		473.4637		477.8383		481.8567		484.9509		488.5918		494.3281		499.1977		502.9828		511.1591		516.5466		523.4428		531.5665		539.3433		549.7169		557.5077		569.6628		579.4479		594.9163		610.1729		627.4268		646.0131		667.7854		689.7392		716.8475		742.6598		768.1155		786.3052		798.5120		791.1861		772.6142		742.5123		703.1646		668.9394		635.0675		606.4504		582.3671		562.8727		546.4825		531.8597		519.7724		511.5678		503.9396		496.3202		491.3810		486.5474		481.6363		479.2369		474.7340		470.6012		469.8740		467.1264		465.9415		464.4556		461.6061		463.1128		461.1531		460.4522		460.2292		457.3280		453.3836		455.2989		452.9684		452.1471		452.2413		452.6607		451.5606		450.9245		450.0017		450.0857		449.6253		
 0.770		426.7293		428.6669		430.7717		432.8849		434.4179		437.3059		439.3629		440.0475		442.5247		445.0116		447.4037		450.0015		450.5986		454.1787		457.2849		460.1941		462.2710		468.3367		471.1030		473.4253		477.7641		481.7820		484.8201		488.4544		494.2245		499.0692		502.8106		510.9488		516.3403		523.2369		531.3403		539.0508		549.4007		557.1299		569.2665		579.0341		594.4816		609.6359		626.7973		645.2273		666.8758		688.5872		715.5450		741.3309		766.7859		785.1047		797.8501		790.9318		773.1577		743.5833		704.4842		670.4005		636.4580		607.7763		583.4912		563.8241		547.3575		532.6268		520.4623		512.1310		504.4796		496.7399		491.7960		486.9088		481.9046		479.4108		474.8965		470.7307		470.0304		467.2459		466.0851		464.5241		461.6425		463.0764		461.2662		460.5152		460.2336		457.3414		453.4630		455.3538		453.0731		452.2447		452.3107		452.7235		451.6316		450.9291		450.0687		450.0884		449.6614		
 0.780		426.8167		428.7060		430.8185		432.9243		434.5141		437.3223		439.3780		440.0786		442.5470		445.0244		447.3860		450.0055		450.5675		454.1188		457.2523		460.1520		462.1911		468.2832		471.0568		473.3869		477.6900		481.7074		484.6893		488.3170		494.1209		498.9406		502.6384		510.7384		516.1339		523.0310		531.1141		538.7584		549.0845		556.7521		568.8701		578.6203		594.0469		609.0989		626.1679		644.4416		665.9662		687.4353		714.2424		740.0020		765.4566		783.9121		797.1882		790.6942		773.7013		744.6543		705.8039		671.8616		637.8485		609.1021		584.6152		564.7755		548.2324		533.3938		521.1522		512.6941		505.0197		497.1595		492.2110		487.2702		482.1728		479.5846		475.0590		470.8603		470.1867		467.3655		466.2287		464.5926		461.6789		463.0400		461.3794		460.5782		460.2380		457.3548		453.5424		455.4088		453.1777		452.3422		452.3801		452.7863		451.7027		450.9338		450.1357		450.0912		449.6975		
 0.790		426.9041		428.7450		430.8652		432.9638		434.6103		437.3387		439.3931		440.1097		442.5693		445.0373		447.3683		450.0095		450.5365		454.0590		457.2196		460.1099		462.1112		468.2297		471.0106		473.3485		477.6158		481.6327		484.5585		488.1796		494.0173		498.8120		502.4662		510.5280		515.9276		522.8250		530.8879		538.4659		548.7683		556.3744		568.4738		578.2065		593.6122		608.5619		625.5385		643.6558		665.0566		686.2834		712.9398		738.6731		764.1274		782.7195		796.3915		790.6027		774.2448		745.7253		707.1235		673.3228		639.2390		610.4280		585.7392		565.7268		549.1074		534.1609		521.8420		513.2572		505.5597		497.5792		492.6260		487.6316		482.4411		479.7584		475.2215		470.9899		470.3431		467.4850		466.3724		464.6611		461.7152		463.0036		461.4925		460.6413		460.2424		457.3681		453.6217		455.4637		453.2824		452.4398		452.4495		452.8491		451.7737		450.9384		450.2026		450.0939		449.7336		
 0.800		426.9915		428.7841		430.9120		433.0033		434.7065		437.3551		439.4082		440.1407		442.5916		445.0502		447.3506		450.0134		450.5054		453.9991		457.1869		460.0679		462.0313		468.1762		470.9644		473.3101		477.5416		481.5581		484.4277		488.0422		493.9136		498.6835		502.2940		510.3176		515.7213		522.6191		530.6617		538.1735		548.4522		555.9966		568.0775		577.7928		593.1775		608.0249		624.9090		642.8701		664.1470		685.1314		711.6372		737.3442		762.7982		781.5269		795.5272		790.5112		774.7651		746.7963		708.4458		674.7839		640.6295		611.7539		586.8632		566.6782		549.9824		534.9280		522.5319		513.8204		506.0998		497.9989		493.0410		487.9930		482.7094		479.9322		475.3840		471.1195		470.4995		467.6046		466.5160		464.7297		461.7516		462.9673		461.6056		460.7043		460.2469		457.3815		453.7011		455.5186		453.3870		452.5374		452.5189		452.9119		451.8447		450.9431		450.2696		450.0967		449.7697		
 0.810		427.0789		428.8231		430.9588		433.0427		434.8027		437.3714		439.4233		440.1718		442.6138		445.0631		447.3329		450.0174		450.4743		453.9393		457.1543		460.0258		461.9514		468.1227		470.9182		473.2717		477.4675		481.4834		484.2969		487.9048		493.8100		498.5549		502.1218		510.1072		515.5149		522.4131		530.4355		537.8810		548.1360		555.6188		567.6811		577.3790		592.7427		607.4879		624.2796		642.0844		663.2374		683.9795		710.3346		736.0153		761.4690		780.3344		794.6628		790.4197		775.1597		747.7651		709.8615		676.2450		642.0200		613.0797		587.9872		567.6296		550.8574		535.6950		523.2218		514.3835		506.6398		498.4186		493.4560		488.3545		482.9776		480.1060		475.5465		471.2491		470.6558		467.7241		466.6597		464.7982		461.7880		462.9309		461.7187		460.7673		460.2513		457.3949		453.7804		455.5735		453.4917		452.6349		452.5883		452.9747		451.9158		450.9477		450.3366		450.0994		449.8058		
 0.820		427.1662		428.8622		431.0055		433.0822		434.8989		437.3878		439.4384		440.2029		442.6361		445.0759		447.3152		450.0214		450.4433		453.8794		457.1216		459.9837		461.8715		468.0692		470.8720		473.2333		477.3933		481.4088		484.1661		487.7674		493.7064		498.4263		501.9496		509.8968		515.3086		522.2072		530.2093		537.5886		547.8198		555.2410		567.2848		576.9652		592.3080		606.9509		623.6502		641.2986		662.3278		682.8276		709.0320		734.6864		760.1397		779.1418		793.7985		790.3282		775.5544		748.6977		711.2773		677.7051		643.3952		614.3761		589.1112		568.5809		551.7324		536.4621		523.9116		514.9467		507.1799		498.8383		493.8711		488.7159		483.2459		480.2798		475.7090		471.3787		470.8122		467.8437		466.8033		464.8667		461.8244		462.8945		461.8136		460.8304		460.2557		457.4083		453.8598		455.6284		453.5963		452.7325		452.6577		453.0375		451.9868		450.9524		450.4036		450.1022		449.8419		
 0.830		427.2098		428.8782		431.0336		433.1086		434.9688		437.3952		439.4461		440.2305		442.6581		445.0888		447.2975		450.0254		450.4122		453.8195		457.0889		459.9416		461.7916		468.0157		470.8258		473.1949		477.3192		481.3341		484.0353		487.6300		493.6028		498.2977		501.7774		509.6865		515.1022		522.0012		529.9832		537.2961		547.5036		554.8632		566.8885		576.5514		591.8733		606.4139		623.0208		640.5129		661.4182		681.6756		707.7295		733.3574		758.8105		777.9492		792.9342		790.2367		775.9490		749.6303		712.6930		679.1610		644.7625		615.6281		590.2352		569.5323		552.5974		537.2292		524.6015		515.5098		507.7199		499.2580		494.2861		489.0773		483.5141		480.4536		475.8715		471.5083		470.9686		467.9632		466.9469		464.9352		461.8926		462.8581		461.9017		460.8934		460.2601		457.4216		453.9392		455.6834		453.7010		452.8301		452.7271		453.1003		452.0579		450.9570		450.4705		450.1049		449.8779		
 0.840		427.1888		428.8541		431.0217		433.1004		434.9478		437.3583		439.3969		440.1981		442.6240		445.0655		447.2717		450.0025		450.3927		453.7899		457.0614		459.9001		461.7377		467.9629		470.7755		473.1491		477.2447		481.2599		483.9056		487.4926		493.4992		498.1692		501.6052		509.4761		514.8959		521.7953		529.7570		537.0036		547.1875		554.4854		566.4921		576.1376		591.4386		605.8769		622.3913		639.7271		660.5086		680.5237		706.4269		732.0285		757.4813		776.7566		792.0698		790.1453		776.3437		750.5629		714.1087		680.6169		646.1297		616.8801		591.3743		570.4852		553.4390		537.9962		525.2914		516.0718		508.2600		499.6776		494.7011		489.4387		483.7824		480.6275		476.0340		471.6378		471.1249		468.0828		467.0906		465.0037		461.9692		462.8217		461.9898		460.9564		460.2645		457.4350		454.0185		455.7383		453.8057		452.9277		452.7965		453.1631		452.1289		450.9617		450.5375		450.1077		449.9140		
 0.850		427.1678		428.8301		431.0098		433.0922		434.9269		437.3215		439.3478		440.1658		442.5900		445.0402		447.2449		449.9744		450.3764		453.7721		457.0367		459.8589		461.7087		467.9110		470.7182		473.0844		477.1691		481.1891		483.8305		487.4126		493.3794		498.0449		501.4638		509.3024		514.7079		521.5933		529.5305		536.7112		546.8713		554.1076		566.0958		575.7238		591.0039		605.3399		621.7619		638.9414		659.5990		679.3718		705.1243		730.6996		756.1521		775.5640		791.2055		790.0538		776.7383		751.4954		715.5244		682.0728		647.4970		618.1320		592.5233		571.4490		554.2807		538.7699		525.9812		516.6260		508.8000		500.0973		495.1159		489.7994		484.0489		480.8013		476.1930		471.7674		471.2813		468.2023		467.2342		465.0841		462.0458		462.7854		462.0779		460.9905		460.2690		457.4484		454.0979		455.7932		453.9103		453.0252		452.8659		453.2259		452.1999		450.9663		450.6045		450.1104		449.9501		
 0.860		427.1468		428.8060		430.9979		433.0841		434.9059		437.2846		439.2986		440.1335		442.5559		445.0148		447.2180		449.9463		450.3601		453.7543		457.0119		459.8178		461.6798		467.8591		470.6609		473.0197		477.0934		481.1183		483.7555		487.3370		493.2562		497.9222		501.3427		509.1671		514.5528		521.4050		529.3013		536.4980		546.6188		553.8102		565.7291		575.3298		590.5693		604.8029		621.1325		638.1556		658.6894		678.2199		703.8217		729.3707		754.8228		774.3715		790.3412		789.9623		777.1330		752.4280		716.9402		683.5287		648.8642		619.3840		593.6724		572.4128		555.1223		539.5554		526.6790		517.1801		509.3596		500.5250		495.5305		490.1585		484.3070		480.9751		476.3352		471.8970		471.3773		468.3219		467.3778		465.1967		462.1224		462.7858		462.1661		461.0110		460.2906		457.4618		454.1773		455.8483		454.0150		453.1228		452.9353		453.2888		452.2710		450.9710		450.6720		450.1132		449.9862		
 0.870		427.1258		428.7819		430.9860		433.0759		434.8849		437.2478		439.2495		440.1011		442.5218		444.9894		447.1912		449.9181		450.3438		453.7364		456.9872		459.7766		461.6508		467.8073		470.6036		472.9550		477.0178		481.0476		483.6804		487.2614		493.1330		497.7995		501.2215		509.0317		514.3977		521.2166		529.0721		536.2904		546.3860		553.5669		565.4035		575.0045		590.1463		604.2745		620.5376		637.4105		657.7798		677.0679		702.5191		728.0418		753.4936		773.1789		789.4768		789.8708		777.5276		753.3606		718.3559		684.9846		650.2315		620.6360		594.8215		573.3766		555.9640		540.3408		527.3792		517.7343		509.9259		500.9634		495.9450		490.5176		484.5651		481.2071		476.4775		471.9902		471.4696		468.4159		467.5249		465.3093		462.1989		462.7959		462.2542		461.0315		460.3242		457.4751		454.2571		455.9067		454.1196		453.2330		452.9873		453.3516		452.3461		450.9756		450.7525		450.1077		450.0223		
 0.880		427.1048		428.7579		430.9741		433.0677		434.8640		437.2109		439.2003		440.0688		442.4878		444.9640		447.1644		449.8900		450.3275		453.7186		456.9625		459.7355		461.6218		467.7554		470.5463		472.8903		476.9422		480.9768		483.6054		487.1857		493.0098		497.6769		501.1003		508.8964		514.2425		521.0283		528.8428		536.0829		546.1531		553.3235		565.0779		574.6791		589.7233		603.7486		619.9754		636.8070		657.0006		676.1549		701.2885		726.7129		752.1644		771.9863		788.6125		789.7793		777.9223		754.2932		719.7716		686.4405		651.5987		621.8879		595.9706		574.3404		556.8056		541.1262		528.0793		518.2885		510.4922		501.4019		496.3596		490.8766		484.8233		481.4810		476.6197		472.0656		471.5618		468.4846		467.6779		465.4220		462.2755		462.8060		462.3423		461.0520		460.3578		457.6077		454.3582		455.9652		454.2262		453.3435		453.0356		453.3928		452.4218		450.9923		450.8331		450.0991		450.0593		
 0.890		427.0838		428.7338		430.9622		433.0596		434.8430		437.1741		439.1512		440.0365		442.4537		444.9386		447.1376		449.8619		450.3112		453.7008		456.9377		459.6943		461.5929		467.7035		470.4890		472.8256		476.8665		480.9061		483.5303		487.1101		492.8865		497.5542		500.9791		508.7611		514.0874		520.8400		528.6136		535.8753		545.9203		553.0802		564.7522		574.3537		589.3003		603.2226		619.4133		636.2035		656.2329		675.4204		700.3907		725.5997		750.9062		770.7937		787.7482		789.6879		778.3169		755.2257		721.1873		687.8964		652.9660		623.1399		597.1197		575.3042		557.6472		541.9117		528.7795		518.8427		511.0586		501.8404		496.7741		491.2357		485.0814		481.7549		476.7619		472.1409		471.6541		468.5532		467.8309		465.5346		462.3521		462.8161		462.4304		461.0725		460.3914		457.7458		454.4593		456.0236		454.3329		453.4540		453.0839		453.4257		452.4975		451.0136		450.9137		450.0904		450.0968		
 0.900		427.0628		428.7098		430.9503		433.0514		434.8220		437.1372		439.1021		440.0041		442.4196		444.9133		447.1108		449.8337		450.2950		453.6829		456.9130		459.6532		461.5639		467.6516		470.4317		472.7609		476.7909		480.8353		483.4552		487.0345		492.7633		497.4315		500.8580		508.6257		513.9322		520.6517		528.3844		535.6678		545.6874		552.8368		564.4266		574.0284		588.8773		602.6966		618.8511		635.6000		655.4652		674.6858		699.4930		724.5570		749.8278		769.6688		786.8589		789.5964		778.7116		756.1583		722.6031		689.3523		654.3332		624.3919		598.2688		576.2680		558.4889		542.6971		529.4796		519.3969		511.6249		502.2789		497.1887		491.5948		485.3396		482.0287		476.9041		472.2162		471.7463		468.6218		467.9839		465.6472		462.4287		462.8262		462.5185		461.0930		460.4251		457.8839		454.5605		456.0820		454.4397		453.5645		453.1321		453.4587		452.5732		451.0348		450.9942		450.0818		450.1344		
 0.910		427.0418		428.6857		430.9384		433.0432		434.8011		437.1004		439.0529		439.9718		442.3855		444.8879		447.0839		449.8056		450.2787		453.6651		456.8883		459.6120		461.5349		467.5997		470.3744		472.6962		476.7153		480.7645		483.3802		486.9589		492.6401		497.3089		500.7368		508.4904		513.7771		520.4634		528.1552		535.4602		545.4546		552.5935		564.1010		573.7030		588.4543		602.1707		618.2890		634.9965		654.6975		673.9513		698.5952		723.5143		748.7493		768.5668		785.8564		789.1990		779.1062		757.0909		724.0188		690.8082		655.7005		625.6438		599.4179		577.2318		559.3305		543.4825		530.1798		519.9511		512.1912		502.7173		497.6032		491.9538		485.5977		482.3026		477.0463		472.2915		471.8385		468.6904		468.1369		465.7598		462.5053		462.8364		462.6066		461.1134		460.4587		458.0220		454.6616		456.1404		454.5464		453.6750		453.1804		453.4916		452.6489		451.0561		451.0748		450.0732		450.1720		
 0.920		427.0208		428.6616		430.9265		433.0351		434.7801		437.0635		439.0038		439.9395		442.3515		444.8625		447.0571		449.7775		450.2624		453.6473		456.8635		459.5709		461.5060		467.5478		470.3170		472.6315		476.6396		480.6938		483.3051		486.8832		492.5168		497.1862		500.6156		508.3551		513.6220		520.2750		527.9260		535.2526		545.2217		552.3501		563.7754		573.3777		588.0312		601.6447		617.7268		634.3930		653.9298		673.2167		697.6974		722.4715		747.6709		767.4648		784.8539		788.5524		778.8699		757.8842		725.4345		692.2641		657.0677		626.8958		600.5670		578.1957		560.1722		544.2680		530.8799		520.5053		512.7575		503.1558		498.0178		492.3129		485.8558		482.5764		477.1886		472.3668		471.9308		468.7590		468.2899		465.8724		462.5818		462.8465		462.6947		461.1339		460.4923		458.1601		454.7627		456.1988		454.6531		453.7855		453.2287		453.5246		452.7246		451.0773		451.1554		450.0646		450.2095		
 0.930		426.9999		428.6376		430.9146		433.0269		434.7592		437.0267		438.9546		439.9071		442.3174		444.8371		447.0303		449.7493		450.2461		453.6294		456.8388		459.5297		461.4770		467.4959		470.2597		472.5668		476.5640		480.6230		483.2300		486.8076		492.3936		497.0636		500.4945		508.2197		513.4668		520.0867		527.6968		535.0451		544.9889		552.1067		563.4498		573.0523		587.6082		601.1188		617.1647		633.7895		653.1621		672.4822		696.7996		721.4288		746.5924		766.3628		783.8513		787.9059		778.5512		758.1838		726.4442		693.7200		658.4350		628.1478		601.7161		579.1595		561.0138		545.0534		531.5801		521.0594		513.3239		503.5943		498.4323		492.6720		486.1140		482.8503		477.3308		472.4422		472.0230		468.8276		468.4429		465.9851		462.6584		462.8566		462.7828		461.1544		460.5259		458.2982		454.8638		456.2573		454.7598		453.8961		453.2769		453.5575		452.8003		451.0986		451.2359		450.0560		450.2471		
 0.940		426.9789		428.6135		430.9027		433.0187		434.7382		436.9898		438.9055		439.8748		442.2833		444.8118		447.0035		449.7212		450.2298		453.6116		456.8141		459.4885		461.4480		467.4440		470.2024		472.5021		476.4884		480.5523		483.1550		486.7320		492.2704		496.9409		500.3733		508.0844		513.3117		519.8984		527.4675		534.8375		544.7560		551.8634		563.1242		572.7270		587.1852		600.5928		616.6026		633.1860		652.3945		671.7476		695.9019		720.3860		745.5139		765.2608		782.8488		787.2593		778.2325		758.4833		727.1241		694.8126		659.7775		629.3998		602.8652		580.1233		561.8555		545.8388		532.2802		521.6136		513.8902		504.0327		498.8469		493.0310		486.3721		483.1242		477.4730		472.5175		472.1153		468.8962		468.5959		466.0977		462.7350		462.8667		462.8709		461.1749		460.5595		458.4363		454.9650		456.3157		454.8665		454.0066		453.3252		453.5905		452.8760		451.1199		451.3165		450.0473		450.2847		
 0.950		426.9579		428.5894		430.8908		433.0105		434.7172		436.9529		438.8563		439.8425		442.2493		444.7864		446.9767		449.6931		450.2135		453.5938		456.7894		459.4474		461.4191		467.3921		470.1451		472.4374		476.4127		480.4815		483.0799		486.6564		492.1472		496.8182		500.2521		507.9491		513.1565		519.7101		527.2383		534.6300		544.5232		551.6200		562.7985		572.4016		586.7622		600.0668		616.0404		632.5826		651.6268		671.0130		695.0041		719.3433		744.4355		764.1588		781.8463		786.6127		777.9138		758.7829		727.8040		695.8601		661.0474		630.6798		604.0384		581.0871		562.6971		546.6243		532.9804		522.1678		514.4565		504.4712		499.2614		493.3901		486.6302		483.3980		477.6152		472.5928		472.2075		468.9648		468.7489		466.2103		462.8116		462.8768		462.9590		461.1954		460.5931		458.5744		455.0661		456.3741		454.9732		454.1171		453.3735		453.6235		452.9517		451.1411		451.3971		450.0387		450.3222		
 0.960		426.9369		428.5654		430.8789		433.0024		434.6963		436.9161		438.8072		439.8101		442.2152		444.7610		446.9498		449.6649		450.1972		453.5759		456.7646		459.4062		461.3901		467.3402		470.0878		472.3727		476.3371		480.4107		483.0048		486.5808		492.0239		496.6956		500.1310		507.8137		513.0014		519.5217		527.0091		534.4224		544.2903		551.3767		562.4729		572.0762		586.3392		599.5409		615.4783		631.9791		650.8591		670.2785		694.1063		718.3005		743.3570		763.0568		780.8438		785.9661		777.5951		759.0825		728.4839		696.9076		662.3174		631.9717		605.3079		582.2171		563.6080		547.4097		533.6805		522.7220		515.0228		504.9097		499.6760		493.7492		486.8884		483.6719		477.7574		472.6681		472.2998		469.0334		468.9020		466.3229		462.8882		462.8870		463.0471		461.2159		460.6267		458.7125		455.1672		456.4325		455.0799		454.2276		453.4218		453.6564		453.0274		451.1624		451.4776		450.0301		450.3598		
 0.970		426.9159		428.5413		430.8670		432.9942		434.6753		436.8792		438.7580		439.7778		442.1811		444.7356		446.9230		449.6368		450.1810		453.5581		456.7399		459.3651		461.3611		467.2884		470.0305		472.3080		476.2615		480.3400		482.9298		486.5051		491.9007		496.5729		500.0098		507.6784		512.8463		519.3334		526.7799		534.2149		544.0575		551.1333		562.1473		571.7509		585.9162		599.0149		614.9161		631.3756		650.0914		669.5439		693.2085		717.2578		742.2786		761.9548		779.8413		785.3195		777.2764		759.3821		729.1638		697.9551		663.5874		633.2637		606.5775		583.4066		564.6556		548.3219		534.4395		523.3450		515.5953		505.3481		500.0905		494.1082		487.1465		483.9457		477.8997		472.7434		472.3920		469.1020		469.0550		466.4355		462.9647		462.8971		463.1352		461.2364		460.6604		458.8506		455.2683		456.4910		455.1867		454.3381		453.4700		453.6894		453.1031		451.1836		451.5582		450.0215		450.3974		
 0.980		426.8949		428.5173		430.8552		432.9860		434.6543		436.8424		438.7089		439.7454		442.1470		444.7102		446.8962		449.6087		450.1647		453.5403		456.7152		459.3239		461.3322		467.2365		469.9732		472.2433		476.1858		480.2692		482.8547		486.4295		491.7775		496.4502		499.8886		507.5431		512.6911		519.1451		526.5507		534.0073		543.8246		550.8899		561.8217		571.4255		585.4932		598.4890		614.3540		630.7721		649.3237		668.8094		692.3108		716.2151		741.2001		760.8528		778.8388		784.6730		776.9577		759.6816		729.8437		699.0026		664.8574		634.5556		607.8470		584.5960		565.7033		549.2359		535.2252		524.0657		516.1978		505.8932		500.5576		494.4810		487.4669		484.2290		478.0754		472.8272		472.4843		469.1707		469.2080		466.5482		463.0413		462.9072		463.2233		461.2568		460.6940		458.9886		455.3695		456.5494		455.2934		454.4486		453.5183		453.7223		453.1788		451.2049		451.6388		450.0129		450.4349		
 0.990		426.8739		428.4932		430.8433		432.9779		434.6334		436.8055		438.6597		439.7131		442.1130		444.6849		446.8694		449.5805		450.1484		453.5224		456.6904		459.2828		461.3032		467.1846		469.9159		472.1786		476.1102		480.1985		482.7796		486.3539		491.6542		496.3276		499.7674		507.4077		512.5360		518.9568		526.3214		533.7998		543.5918		550.6466		561.4961		571.1002		585.0701		597.9630		613.7918		630.1686		648.5560		668.0748		691.4130		715.1723		740.1217		759.7508		777.8363		784.0264		776.6391		759.9812		730.5236		700.0501		666.1273		635.8475		609.1166		585.7855		566.7509		550.1498		536.0109		524.7863		516.8003		506.4441		501.0417		494.8637		487.8735		484.5359		478.4344		473.1520		472.7415		469.3967		469.3222		466.6645		463.1674		462.9787		463.2910		461.2868		460.7420		459.1102		455.4766		456.6167		455.3918		454.5516		453.5669		453.7560		453.2537		451.2262		451.7193		450.0043		450.4725		
 1.000		426.8529		428.4691		430.8314		432.9697		434.6124		436.7687		438.6106		439.6808		442.0789		444.6595		446.8426		449.5524		450.1321		453.5046		456.6657		459.2416		461.2742		467.1327		469.8586		472.1139		476.0345		480.1277		482.7046		486.2783		491.5310		496.2049		499.6463		507.2724		512.3808		518.7685		526.0922		533.5922		543.3589		550.4032		561.1704		570.7748		584.6471		597.4370		613.2297		629.5651		647.7883		667.3402		690.5152		714.1296		739.0432		758.6488		776.8338		783.3798		776.3204		760.2808		731.2035		701.0976		667.3973		637.1395		610.3861		586.9750		567.7985		551.0638		536.7967		525.5070		517.4029		506.9950		501.5258		495.2463		488.2801		484.8427		478.7933		473.4768		473.0123		469.6552		469.4227		466.7827		463.3286		463.1059		463.3350		461.3303		460.8160		459.1922		455.6015		456.7164		455.4510		454.6069		453.6185		453.8015		453.2745		451.2706		451.7472		450.0700		450.5016		
 1.010		426.8319		428.4451		430.8195		432.9615		434.5915		436.7318		438.5614		439.6484		442.0448		444.6341		446.8158		449.5243		450.1158		453.4868		456.6410		459.2005		461.2453		467.0808		469.8013		472.0492		475.9589		480.0569		482.6295		486.2027		491.4078		496.0822		499.5251		507.1371		512.2257		518.5801		525.8630		533.3847		543.1261		550.1599		560.8448		570.4495		584.2241		596.9111		612.6675		628.9616		647.0206		666.6057		689.6174		713.0868		737.9648		757.5468		775.8313		782.7332		776.0017		760.5804		731.8834		702.1451		668.6673		638.4314		611.6556		588.1645		568.8462		551.9778		537.5824		526.2276		518.0054		507.5459		502.0099		495.6290		488.6867		485.1496		479.1523		473.8015		473.2830		469.9137		469.5232		466.9009		463.4897		463.2331		463.3790		461.3738		460.8901		459.2743		455.7263		456.8162		455.5103		454.6622		453.6701		453.8471		453.2953		451.3157		451.7715		450.1446		450.5293		
 1.020		426.8142		428.4220		430.8076		432.9534		434.5705		436.6950		438.5123		439.6161		442.0136		444.6060		446.7889		449.4961		450.0995		453.4689		456.6163		459.1593		461.2163		467.0289		469.7440		471.9845		475.8833		479.9862		482.5544		486.1270		491.2846		495.9596		499.4039		507.0017		512.0706		518.3918		525.6338		533.1771		542.8932		549.9165		560.5192		570.1241		583.8011		596.3851		612.1054		628.3581		646.2529		665.8711		688.7197		712.0441		736.8863		756.4448		774.8288		782.0866		775.6830		760.8799		732.5633		703.1926		669.9372		639.7234		612.9252		589.3540		569.8938		552.8917		538.3681		526.9483		518.6080		508.0968		502.4941		496.0117		489.0933		485.4565		479.5112		474.1263		473.5538		470.1721		469.6237		467.0192		463.6509		463.3602		463.4230		461.4173		460.9642		459.3563		455.8512		456.9159		455.5695		454.7174		453.7218		453.8927		453.3162		451.3608		451.7957		450.2191		450.5569		
 1.030		426.7989		428.4004		430.7957		432.9452		434.5495		436.6668		438.4631		439.5841		441.9933		444.5696		446.7621		449.4680		450.0833		453.4448		456.5864		459.1112		461.1835		466.9770		469.6876		471.9200		475.8076		479.9155		482.4794		486.0539		491.1555		495.8347		499.2828		506.8664		511.9154		518.2035		525.4046		532.9695		542.6604		549.6732		560.1936		569.7987		583.3781		595.8592		611.5433		627.7547		645.4852		665.1366		687.8219		711.0014		735.8078		755.3428		773.8263		781.4401		775.3643		761.1795		733.2432		704.2401		671.2072		641.0153		614.1947		590.5435		570.9414		553.8057		539.1539		527.6689		519.2105		508.6477		502.9782		496.3944		489.4999		485.7634		479.8702		474.4511		473.8245		470.4306		469.7242		467.1374		463.8121		463.4874		463.4671		461.4608		461.0383		459.4383		455.9760		457.0157		455.6287		454.7727		453.7734		453.9383		453.3370		451.4059		451.8199		450.2936		450.5846		
 1.040		426.7835		428.3787		430.7784		432.9263		434.5257		436.6420		438.4140		439.5520		441.9730		444.5332		446.7353		449.4392		450.0670		453.4186		456.5542		459.0610		461.1474		466.9251		469.6334		471.8598		475.7279		479.8452		482.4043		485.9868		491.0192		495.7017		499.1616		506.7247		511.7507		518.0152		525.1807		532.7620		542.4275		549.4298		559.8680		569.4734		582.9551		595.3332		610.9811		627.1512		644.7176		664.4020		686.9241		709.9586		734.7294		754.2408		772.8238		780.7935		775.0456		761.4791		733.9231		705.2876		672.4772		642.3072		615.4643		591.7329		571.9891		554.7196		539.9396		528.3896		519.8131		509.1985		503.4623		496.7771		489.9064		486.0703		480.2291		474.7758		474.0953		470.6890		469.8247		467.2556		463.9733		463.6146		463.5111		461.5043		461.1124		459.5203		456.1008		457.1154		455.6880		454.8279		453.8250		453.9838		453.3578		451.4510		451.8442		450.3682		450.6123		
 1.050		426.7682		428.3571		430.7526		432.9066		434.4896		436.6171		438.3778		439.5200		441.9528		444.4968		446.7154		449.4072		450.0437		453.3925		456.5220		459.0107		461.1113		466.8678		469.5791		471.7996		475.6480		479.7749		482.3222		485.9197		490.8828		495.5687		499.0404		506.5786		511.5851		517.8269		524.9682		532.5426		542.1947		549.1697		559.5424		569.1446		582.5290		594.8072		610.4190		626.5477		643.9499		663.6674		686.0263		708.9159		733.6509		753.1388		771.8213		780.1469		774.7270		761.7786		734.6030		706.3351		673.7472		643.5992		616.7338		592.9224		573.0367		555.6336		540.7254		529.1102		520.4156		509.7494		503.9465		497.1597		490.3130		486.3772		480.5881		475.1006		474.3660		470.9475		469.9252		467.3739		464.1345		463.7417		463.5551		461.5478		461.1865		459.6023		456.2257		457.2152		455.7472		454.8832		453.8766		454.0294		453.3786		451.4961		451.8684		450.4427		450.6399		
 1.060		426.7529		428.3354		430.7269		432.8869		434.4534		436.5923		438.3419		439.4880		441.9325		444.4603		446.6980		449.3751		450.0143		453.3664		456.4899		458.9605		461.0752		466.7999		469.5249		471.7394		475.5681		479.7047		482.2348		485.8525		490.7465		495.4357		498.9215		506.4325		511.4194		517.6382		524.7558		532.3228		541.9567		548.8952		559.2167		568.8107		582.0823		594.2813		609.8568		625.9442		643.1822		662.9329		685.1286		707.8731		732.5725		752.0368		770.8188		779.5003		774.4083		762.0782		735.2830		707.3826		675.0171		644.8911		618.0033		594.1119		574.0843		556.5475		541.5111		529.8309		521.0182		510.3003		504.4306		497.5424		490.7196		486.6841		480.9470		475.4253		474.6368		471.2060		470.0257		467.4921		464.2957		463.8689		463.5992		461.5914		461.2606		459.6844		456.3505		457.3149		455.8065		454.9385		453.9283		454.0750		453.3995		451.5412		451.8926		450.5172		450.6676		
 1.070		426.7376		428.3138		430.7012		432.8672		434.4173		436.5674		438.3059		439.4559		441.9122		444.4239		446.6806		449.3431		449.9850		453.3403		456.4577		458.9102		461.0391		466.7320		469.4706		471.6792		475.4882		479.6344		482.1474		485.7854		490.6101		495.3027		498.8047		506.2864		511.2537		517.4493		524.5434		532.1031		541.7081		548.6207		558.8907		568.4768		581.6356		593.7587		609.2947		625.3407		642.4145		662.1659		684.2190		706.8304		731.4940		750.9348		769.8163		778.8538		774.0896		762.3778		735.9629		708.4301		676.2871		646.1831		619.2729		595.3014		575.1319		557.4615		542.2968		530.5515		521.6207		510.8512		504.9147		497.9251		491.1262		486.9910		481.3060		475.7501		474.9075		471.4644		470.1262		467.6103		464.4569		463.9961		463.6432		461.6349		461.3347		459.7664		456.4753		457.4147		455.8657		454.9937		453.9799		454.1205		453.4203		451.5862		451.9169		450.5918		450.6952		
 1.080		426.7222		428.2921		430.6754		432.8475		434.3812		436.5426		438.2700		439.4239		441.8919		444.3875		446.6633		449.3110		449.9556		453.3142		456.4255		458.8600		461.0030		466.6641		469.4164		471.6190		475.4082		479.5641		482.0600		485.7183		490.4738		495.1697		498.6878		506.1402		511.0880		517.2604		524.3310		531.8833		541.4596		548.3463		558.5641		568.1430		581.1890		593.2539		608.7408		624.7288		641.6674		661.3905		683.2878		705.7876		730.4156		749.8348		768.8138		778.2072		773.7709		762.6774		736.6428		709.4776		677.5571		647.4750		620.5424		596.4909		576.1796		558.3754		543.0826		531.2722		522.2232		511.4021		505.3989		498.3078		491.5328		487.2979		481.6649		476.0749		475.1782		471.7229		470.2268		467.7285		464.6181		464.1232		463.6872		461.6784		461.4088		459.8484		456.6002		457.5144		455.9249		455.0490		454.0315		454.1661		453.4411		451.6313		451.9411		450.6663		450.7229		
 1.090		426.7069		428.2705		430.6497		432.8278		434.3450		436.5177		438.2340		439.3919		441.8716		444.3511		446.6459		449.2789		449.9262		453.2880		456.3933		458.8097		460.9669		466.5962		469.3622		471.5588		475.3283		479.4939		481.9726		485.6512		490.3374		495.0367		498.5710		505.9941		510.9223		517.0715		524.1185		531.6636		541.2110		548.0718		558.2374		567.8091		580.7423		592.7490		608.1902		624.1038		640.9396		660.6150		682.3566		704.7648		729.3371		748.7541		767.8297		777.5606		773.4522		762.9769		737.3227		710.5251		678.8270		648.7669		621.8119		597.6804		577.2272		559.2894		543.8683		531.9929		522.8258		511.9530		505.8830		498.6905		491.9394		487.6048		482.0239		476.3996		475.4490		471.9814		470.3273		467.8468		464.7793		464.2504		463.7312		461.7219		461.4829		459.9304		456.7250		457.6142		455.9842		455.1043		454.0831		454.2117		453.4619		451.6764		451.9653		450.7408		450.7506		
 1.100		426.6916		428.2488		430.6239		432.8081		434.3089		436.4928		438.1981		439.3599		441.8513		444.3146		446.6285		449.2469		449.8968		453.2619		456.3611		458.7594		460.9308		466.5283		469.3079		471.4986		475.2484		479.4236		481.8852		485.5840		490.2011		494.9037		498.4542		505.8480		510.7567		516.8825		523.9061		531.4438		540.9625		547.7973		557.9107		567.4752		580.2957		592.2441		607.6395		623.4788		640.2118		659.8395		681.4253		703.7499		728.2514		747.6734		766.8487		776.9140		773.1991		763.2765		738.0026		711.5726		680.0970		650.0589		623.0815		598.8698		578.2748		560.2033		544.6540		532.7135		523.4283		512.5039		506.3671		499.0731		492.3460		487.9117		482.3829		476.7244		475.7197		472.2398		470.4278		467.9650		464.9405		464.3776		463.7753		461.7654		461.5570		460.0124		456.8499		457.7139		456.0434		455.1595		454.1347		454.2573		453.4827		451.7215		451.9896		450.8154		450.7782		
 1.110		426.6763		428.2272		430.5982		432.7884		434.2727		436.4680		438.1622		439.3278		441.8310		444.2782		446.6111		449.2148		449.8674		453.2358		456.3289		458.7092		460.8947		466.4604		469.2537		471.4384		475.1685		479.3533		481.7978		485.5169		490.0647		494.7706		498.3373		505.7019		510.5910		516.6936		523.6937		531.2241		540.7139		547.5229		557.5841		567.1413		579.8490		591.7392		607.0888		622.8537		639.4840		659.0640		680.4941		702.7349		727.1651		746.5927		765.8676		776.2453		773.0110		763.5761		738.6825		712.6201		681.3670		651.3508		624.3510		600.0593		579.3225		561.1173		545.4398		533.4342		524.0309		513.0547		506.8513		499.4558		492.7526		488.2185		482.7418		477.0491		475.9905		472.4983		470.5283		468.0832		465.1016		464.5047		463.8193		461.8089		461.6311		460.0945		456.9747		457.8137		456.1026		455.2148		454.1864		454.3028		453.5036		451.7666		452.0138		450.8899		450.8059		
 1.120		426.6609		428.2055		430.5724		432.7687		434.2366		436.4431		438.1262		439.2958		441.8108		444.2418		446.5938		449.1828		449.8380		453.2097		456.2968		458.6589		460.8586		466.3925		469.1994		471.3782		475.0886		479.2831		481.7105		485.4498		489.9283		494.6376		498.2205		505.5557		510.4253		516.5047		523.4813		531.0044		540.4653		547.2484		557.2574		566.8075		579.4023		591.2343		606.5382		622.2287		638.7562		658.2885		679.5628		701.7200		726.0788		745.5120		764.8866		775.4933		772.8229		763.8757		739.4880		713.7091		682.6370		652.6427		625.6206		601.2488		580.3701		562.0313		546.2255		534.1548		524.6334		513.6056		507.3354		499.8385		493.1592		488.5254		483.1008		477.3739		476.2612		472.7568		470.6288		468.2015		465.2628		464.6319		463.8633		461.8524		461.7052		460.1765		457.0995		457.9134		456.1619		455.2700		454.2380		454.3484		453.5244		451.8117		452.0380		450.9644		450.8335		
 1.130		426.6456		428.1839		430.5467		432.7489		434.2005		436.4183		438.0903		439.2638		441.7905		444.2054		446.5764		449.1507		449.8086		453.1836		456.2646		458.6087		460.8225		466.3246		469.1452		471.3181		475.0086		479.2128		481.6231		485.3827		489.7920		494.5046		498.1037		505.4096		510.2596		516.3158		523.2688		530.7846		540.2168		546.9739		556.9308		566.4736		578.9557		590.7294		605.9875		621.6037		638.0284		657.5131		678.6316		700.7050		724.9925		744.4313		763.9056		774.7414		772.6347		764.1099		740.2956		714.8189		683.9069		653.9368		626.8816		602.4383		581.4177		562.9452		547.0113		534.8755		525.2360		514.1565		507.8195		500.2212		493.5658		488.8323		483.4597		477.6987		476.5320		473.0152		470.7293		468.3197		465.4240		464.7591		463.9074		461.8959		461.7793		460.2585		457.2244		458.0132		456.2211		455.3253		454.2896		454.3940		453.5452		451.8568		452.0623		451.0390		450.8612		
 1.140		426.6303		428.1622		430.5209		432.7292		434.1643		436.3934		438.0543		439.2317		441.7702		444.1689		446.5590		449.1187		449.7793		453.1574		456.2324		458.5584		460.7864		466.2567		469.0910		471.2579		474.9287		479.1425		481.5357		485.3155		489.6556		494.3716		497.9868		505.2635		510.0940		516.1269		523.0564		530.5649		539.9682		546.6995		556.6041		566.1397		578.5090		590.2245		605.4369		620.9786		637.3007		656.7376		677.7004		699.6901		723.9062		743.3506		762.9246		773.9894		772.4466		764.2978		741.1033		715.9288		685.1707		655.2336		628.1147		603.5827		582.4640		563.8592		547.7970		535.5961		525.8385		514.7074		508.3037		500.6039		493.9724		489.1392		483.8187		478.0234		476.8027		473.2737		470.8298		468.4379		465.5852		464.8862		463.9514		461.9395		461.8534		460.3405		457.3492		458.1129		456.2803		455.3806		454.3412		454.4395		453.5660		451.9018		452.0865		451.1135		450.8889		
 1.150		426.6149		428.1405		430.4952		432.7095		434.1282		436.3686		438.0184		439.1997		441.7499		444.1325		446.5416		449.0866		449.7499		453.1313		456.2002		458.5082		460.7503		466.1888		469.0367		471.1977		474.8488		479.0723		481.4483		485.2484		489.5193		494.2386		497.8700		505.1174		509.9283		515.9380		522.8440		530.3451		539.7197		546.4250		556.2775		565.8058		578.0624		589.7196		604.8862		620.3536		636.5729		655.9621		676.7691		698.6751		722.8199		742.2699		761.9436		773.2374		772.2584		764.4858		741.9110		717.0387		686.4194		656.5304		629.3478		604.7147		583.5064		564.7505		548.5641		536.3168		526.4410		515.2583		508.7878		500.9865		494.3790		489.4461		484.1776		478.3482		477.0735		473.5322		470.9303		468.5561		465.7464		465.0134		463.9954		461.9830		461.9275		460.4225		457.4741		458.2127		456.3396		455.4358		454.3929		454.4851		453.5869		451.9469		452.1107		451.1880		450.9165		
 1.160		426.5996		428.1189		430.4694		432.6898		434.0921		436.3437		437.9824		439.1677		441.7296		444.0961		446.5243		449.0546		449.7205		453.1052		456.1680		458.4579		460.7142		466.1209		468.9825		471.1375		474.7689		479.0020		481.3609		485.1813		489.3829		494.1056		497.7532		504.9713		509.7626		515.7490		522.6316		530.1254		539.4711		546.1505		555.9508		565.4719		577.6157		589.2147		604.3355		619.7285		635.8451		655.1866		675.8379		697.6602		721.7336		741.1892		760.9626		772.4854		772.0703		764.6738		742.7186		718.1486		687.6680		657.8272		630.5808		605.8468		584.5487		565.6392		549.3281		537.0239		527.0400		515.7938		509.2687		501.3692		494.7855		489.7530		484.5366		478.6729		477.3442		473.7906		471.0308		468.6744		465.9076		465.1406		464.0395		462.0265		462.0016		460.5046		457.5989		458.3124		456.3988		455.4911		454.4445		454.5307		453.6077		451.9920		452.1350		451.2626		450.9442		
 1.170		426.5843		428.0972		430.4437		432.6701		434.0559		436.3189		437.9465		439.1356		441.7093		444.0596		446.5069		449.0225		449.6911		453.0791		456.1358		458.4077		460.6781		466.0529		468.9282		471.0773		474.6890		478.9317		481.2735		485.1142		489.2466		493.9726		497.6363		504.8251		509.5969		515.5601		522.4191		529.9056		539.2226		545.8761		555.6242		565.1381		577.1691		588.7099		603.7849		619.1035		635.1173		654.4111		674.9066		696.6452		720.6473		740.1086		759.9816		771.7335		771.8821		764.8618		743.5263		719.2585		688.9166		659.1239		631.8139		606.9789		585.5910		566.5279		550.0920		537.7244		527.6381		516.3293		509.7108		501.7519		495.1921		490.0903		484.8955		478.9758		477.6150		474.0466		471.1314		468.7924		466.0688		465.2677		464.0835		462.0700		462.0757		460.5866		457.7237		458.4122		456.4580		455.5463		454.4961		454.5763		453.6285		452.0371		452.1592		451.3371		450.9719		
 1.180		426.5690		428.0756		430.4179		432.6504		434.0198		436.2940		437.9105		439.1036		441.6891		444.0232		446.4895		448.9905		449.6617		453.0530		456.1037		458.3574		460.6419		465.9850		468.8740		471.0171		474.6091		478.8615		481.1861		485.0470		489.1102		493.8396		497.5195		504.6790		509.4313		515.3712		522.2067		529.6859		538.9740		545.6016		555.2975		564.8042		576.7224		588.2050		603.2342		618.4785		634.3895		653.6357		673.9754		695.6303		719.5609		739.0279		759.0006		770.9815		771.6940		765.0497		744.3340		720.3684		690.1652		660.4207		633.0470		608.1109		586.6334		567.4166		550.8560		538.4250		528.2362		516.8647		510.1528		502.1362		495.6063		490.4281		485.2545		479.2677		477.8857		474.2774		471.2538		468.9055		466.2300		465.4038		464.1223		462.1135		462.1507		460.6677		457.8520		458.5120		456.5173		455.6016		454.5477		454.6218		453.6493		452.0822		452.1862		451.4116		450.9998		
 1.190		426.5536		428.0539		430.3922		432.6307		433.9836		436.2691		437.8746		439.0716		441.6688		443.9868		446.4722		448.9584		449.6323		453.0268		456.0715		458.3071		460.6058		465.9171		468.8197		470.9569		474.5291		478.7912		481.0987		484.9799		488.9739		493.7066		497.4027		504.5329		509.2656		515.1823		521.9943		529.4661		538.7255		545.3271		554.9709		564.4703		576.2757		587.7001		602.6836		617.8534		633.6617		652.8602		673.0442		694.6153		718.4746		737.9472		758.0196		770.2295		771.5058		765.2377		745.1416		721.4782		691.4139		661.7175		634.2801		609.2430		587.6757		568.3054		551.6200		539.1255		528.8344		517.4002		510.5948		502.5276		496.0405		490.7658		485.6207		479.5595		478.1457		474.5082		471.3798		469.0186		466.3912		465.5448		464.1603		462.1570		462.2263		460.7485		457.9820		458.6117		456.5487		455.6569		454.5994		454.6743		453.6457		452.1273		452.2281		451.4862		451.0312		
 1.200		426.5383		428.0323		430.3664		432.6110		433.9475		436.2443		437.8386		439.0396		441.6485		443.9504		446.4548		448.9263		449.6029		453.0007		456.0393		458.2569		460.5697		465.8492		468.7655		470.8967		474.4492		478.7209		481.0113		484.9128		488.8375		493.5736		497.2858		504.3868		509.0999		514.9934		521.7819		529.2464		538.4769		545.0527		554.6442		564.1364		575.8291		587.1952		602.1329		617.2284		632.9339		652.0847		672.1129		693.6004		717.3883		736.8665		757.0386		769.4775		771.3177		765.4257		745.9493		722.5881		692.6625		663.0143		635.5131		610.3750		588.7181		569.1941		552.3840		539.8260		529.4325		517.9356		511.0369		502.9190		496.4746		491.1035		485.9896		479.8514		478.4014		474.7390		471.5058		469.1317		466.5808		465.6857		464.1982		462.2158		462.3019		460.8292		458.1120		458.7217		456.5801		455.7114		454.6501		454.7276		453.6328		452.1724		452.2700		451.5611		451.0626		
 1.210		426.5230		428.0106		430.3407		432.5913		433.9114		436.2194		437.8027		439.0075		441.6282		443.9139		446.4374		448.8943		449.5736		452.9746		456.0071		458.2066		460.5336		465.7813		468.7113		470.8365		474.3693		478.6507		480.9239		484.8457		488.7012		493.4406		497.1690		504.2406		508.9342		514.8045		521.5694		529.0266		538.2284		544.7782		554.3176		563.8026		575.3824		586.6903		601.5822		616.6034		632.2061		651.3092		671.1817		692.5854		716.3020		735.7858		756.0576		768.7256		771.1296		765.6137		746.7570		723.6980		693.9111		664.3110		636.7462		611.5071		589.7604		570.0828		553.1480		540.5265		530.0306		518.4711		511.4789		503.3105		496.9087		491.4413		486.3586		480.1432		478.6571		474.9698		471.6318		469.2449		466.7818		465.8267		464.2361		462.2810		462.3775		460.9099		458.2419		458.8323		456.6115		455.7646		454.6978		454.7809		453.6199		452.2044		452.3119		451.6363		451.0939		
 1.220		426.5076		427.9890		430.3149		432.5715		433.8752		436.1946		437.7667		438.9755		441.6079		443.8775		446.4200		448.8622		449.5442		452.9485		455.9749		458.1564		460.4975		465.7134		468.6570		470.7763		474.2894		478.5804		480.8365		484.7785		488.5648		493.3076		497.0522		504.0945		508.7685		514.6155		521.3570		528.8069		537.9798		544.5037		553.9909		563.4687		574.9358		586.1854		601.0316		615.9783		631.4783		650.5337		670.2504		691.5705		715.2157		734.7051		755.0766		767.9736		770.9414		765.8016		747.5646		724.8079		695.1598		665.6078		637.9793		612.6391		590.8027		570.9715		553.9120		541.2270		530.6287		519.0065		511.9209		503.7019		497.3428		491.7790		486.7275		480.4351		478.9128		475.2006		471.7578		469.3580		466.9827		465.9677		464.2741		462.3463		462.4532		460.9907		458.3719		458.9429		456.6429		455.8179		454.7454		454.8343		453.6070		452.2259		452.3538		451.7116		451.1253		
 1.230		     NaN		     NaN		     NaN		435.2406		436.4591		438.2440		440.0289		441.5080		442.7259		444.9672		446.4754		449.1088		450.5811		452.9224		455.9427		458.1061		460.4614		465.6455		468.6028		470.7161		474.2095		478.5101		480.7491		484.7114		488.4284		493.1746		496.9353		503.9484		508.6029		514.4266		521.1446		528.5871		537.7313		544.2293		553.6643		563.1348		574.4891		585.6805		600.4809		615.3533		630.7505		649.7583		669.3192		690.5555		714.1294		733.6244		754.0956		767.2216		770.7533		765.9896		748.3723		725.9178		696.4084		666.9046		639.2124		613.7712		591.8451		571.8602		554.6760		541.9275		531.2269		519.5420		512.3630		504.0933		497.7770		492.1168		487.0965		480.7269		479.1685		475.4314		471.8838		469.4711		467.1837		466.1087		464.3120		462.4115		462.5288		461.0714		458.5018		459.0535		456.6743		455.8711		454.7931		454.8876		453.5940		452.2474		452.3957		451.7868		451.1566		
 1.240		     NaN		     NaN		     NaN		     NaN		     NaN		     NaN		     NaN		447.5635		448.8074		450.5923		452.3773		454.0122		455.2720		457.1691		459.3857		461.9063		463.4659		465.4225		469.2815		473.5209		478.1446		479.6062		481.2305		485.6075		489.5759		493.0100		496.8185		503.8023		508.4372		514.2377		520.9322		528.3674		537.4827		543.9548		553.3376		562.8009		574.0425		585.1756		599.9303		614.7282		630.0228		648.9828		668.3880		689.5406		713.0431		732.5437		753.1146		766.4696		770.5651		766.1776		749.1799		727.0276		697.6570		668.2014		640.4454		614.9033		592.8874		572.7489		555.4400		542.6280		531.8250		520.0775		512.8050		504.4848		498.2111		492.4545		487.4654		481.0188		479.4242		475.6622		472.0098		469.5842		467.3847		466.2497		464.3500		462.4768		462.6044		461.1521		458.6318		459.1642		456.7057		455.9243		454.8407		454.9409		453.5811		452.2689		452.4376		451.8620		451.1880		
 1.250		     NaN		     NaN		     NaN		     NaN		     NaN		     NaN		     NaN		     NaN		     NaN		     NaN		     NaN		     NaN		461.3345		462.9407		464.7256		466.4525		467.7773		469.4774		472.2960		474.7038		476.3508		481.5758		484.4507		492.8069		494.5812		497.2853		501.5820		504.6524		513.0085		518.5915		523.3646		528.4446		535.6778		543.6803		553.0110		562.4671		573.5958		584.6708		599.3796		614.1032		629.2950		648.2073		667.4567		688.5256		711.9568		731.4630		752.1336		765.7177		770.3770		766.3656		749.9876		728.1375		698.9057		669.4981		641.6785		616.0353		593.9297		573.6376		556.2040		543.3285		532.4231		520.6129		513.2471		504.8762		498.6452		492.7923		487.8344		481.3106		479.6799		475.8930		472.1358		469.6974		467.5856		466.3906		464.3879		462.5420		462.6800		461.2328		458.7618		459.2748		456.7371		455.9775		454.8884		454.9942		453.5682		452.2904		452.4795		451.9373		451.2194		
 1.260		     NaN		     NaN		     NaN		     NaN		     NaN		     NaN		     NaN		     NaN		     NaN		     NaN		     NaN		     NaN		     NaN		     NaN		     NaN		     NaN		466.2734		475.6854		477.0740		478.8589		480.2825		481.7856		485.2064		487.5022		489.2356		496.1537		504.5638		510.4858		512.1211		516.1467		519.9789		533.0070		540.5150		545.2711		551.0330		558.9730		567.1363		583.8869		598.4549		613.4782		628.5672		647.4318		666.5255		687.5107		710.8705		730.3823		751.1526		764.9657		770.1888		766.5535		750.7953		729.2474		700.1543		670.7949		642.9116		617.1674		594.9721		574.5263		556.9680		544.0291		533.0213		521.1484		513.6891		505.2676		499.0794		493.1300		488.2033		481.6025		479.9356		476.1238		472.2619		469.8105		467.7866		466.5316		464.4259		462.6073		462.7557		461.3136		458.8917		459.3854		456.7685		456.0308		454.9360		455.0475		453.5553		452.3119		452.5215		452.0125		451.2507		
 1.270		     NaN		     NaN		     NaN		     NaN		     NaN		     NaN		     NaN		     NaN		     NaN		     NaN		     NaN		     NaN		     NaN		     NaN		     NaN		     NaN		     NaN		     NaN		     NaN		     NaN		     NaN		487.9812		489.4223		491.2072		492.7870		494.0939		498.1167		     NaN		     NaN		510.8248		523.9699		527.1094		     NaN		     NaN		546.7003		561.2648		567.1775		     NaN		     NaN		     NaN		     NaN		639.8832		665.5942		686.4957		709.7842		729.3016		750.1716		764.2137		770.0007		766.7415		751.6029		730.3573		701.4029		672.0917		644.1447		618.2994		596.0144		575.4151		557.7320		544.7296		533.6194		521.6838		514.1311		505.6591		499.5135		493.4678		488.5723		481.8943		480.1913		476.3546		472.3879		469.9236		467.9875		466.6726		464.4638		462.6726		462.8313		461.3943		459.0217		459.4960		456.7999		456.0840		454.9836		455.1009		453.5423		452.3334		452.5634		452.0878		451.2821		
 1.280		     NaN		     NaN		     NaN		     NaN		     NaN		     NaN		     NaN		     NaN		     NaN		     NaN		     NaN		     NaN		     NaN		     NaN		     NaN		     NaN		     NaN		     NaN		     NaN		     NaN		     NaN		     NaN		     NaN		     NaN		     NaN		     NaN		502.1491		503.5556		505.2726		506.4814		     NaN		     NaN		     NaN		     NaN		542.8270		     NaN		     NaN		     NaN		577.7250		589.0839		     NaN		     NaN		     NaN		     NaN		     NaN		728.2209		749.1906		763.4617		769.8125		766.9295		752.4106		731.4672		702.6515		673.3885		645.3777		619.4315		597.0568		576.3038		558.4960		545.4301		534.2175		522.2193		514.5732		506.0505		499.9476		493.8055		488.9412		482.1861		480.4470		476.5854		472.5139		470.0367		468.1885		466.8136		464.5017		462.7378		462.9069		461.4750		459.1516		459.6066		456.8313		456.1372		455.0313		455.1542		453.5294		452.3549		452.6053		452.1630		451.3134		
 1.290		     NaN		     NaN		     NaN		     NaN		     NaN		     NaN		     NaN		     NaN		     NaN		     NaN		     NaN		     NaN		     NaN		     NaN		     NaN		     NaN		     NaN		     NaN		     NaN		     NaN		     NaN		     NaN		     NaN		     NaN		     NaN		     NaN		     NaN		     NaN		     NaN		     NaN		507.7137		515.9039		517.6888		     NaN		     NaN		     NaN		     NaN		     NaN		     NaN		     NaN		     NaN		     NaN		     NaN		     NaN		     NaN		     NaN		     NaN		762.7097		769.6244		767.1175		753.2183		732.5771		703.9002		674.6852		646.6108		620.5635		598.0991		577.1925		559.2599		546.1306		534.8156		522.7548		515.0152		506.4419		500.3817		494.1432		489.3101		482.4780		480.7027		476.8162		472.6399		470.1499		468.3895		466.9545		464.5397		462.8031		462.9825		461.5558		459.2816		459.7172		456.8627		456.1905		455.0789		455.2075		453.5165		452.3764		452.6472		452.2383		451.3448		
 1.300		     NaN		     NaN		     NaN		     NaN		     NaN		     NaN		     NaN		     NaN		     NaN		     NaN		     NaN		     NaN		     NaN		     NaN		     NaN		     NaN		     NaN		     NaN		     NaN		     NaN		     NaN		     NaN		     NaN		     NaN		     NaN		     NaN		     NaN		     NaN		     NaN		     NaN		     NaN		     NaN		     NaN		     NaN		     NaN		528.2487		530.0372		     NaN		     NaN		     NaN		     NaN		     NaN		     NaN		     NaN		     NaN		     NaN		     NaN		     NaN		     NaN		767.3054		754.0259		733.6869		705.1488		675.9820		647.8439		621.6956		599.1414		578.0812		560.0239		546.8311		535.4138		523.2902		515.4573		506.8334		500.8159		494.4810		489.6791		482.7698		480.9584		477.0470		472.7659		470.2630		468.5904		467.0955		464.5776		462.8683		463.0582		461.6365		459.4116		459.8278		456.8941		456.2437		455.1266		455.2608		453.5036		452.3979		452.6891		452.3135		451.3762		
 1.310		     NaN		     NaN		     NaN		     NaN		     NaN		     NaN		     NaN		     NaN		     NaN		     NaN		     NaN		     NaN		     NaN		     NaN		     NaN		     NaN		     NaN		     NaN		     NaN		     NaN		     NaN		     NaN		     NaN		     NaN		     NaN		     NaN		     NaN		     NaN		     NaN		     NaN		     NaN		     NaN		     NaN		     NaN		     NaN		     NaN		     NaN		     NaN		     NaN		     NaN		     NaN		     NaN		     NaN		     NaN		     NaN		     NaN		     NaN		     NaN		     NaN		     NaN		754.8336		734.7968		706.3974		677.2788		649.0770		622.8277		600.1838		578.9699		560.7879		547.5316		536.0119		523.8257		515.8993		507.2248		501.2500		494.8187		490.0480		483.0617		481.2142		477.2778		472.8919		470.3761		468.7914		467.2365		464.6156		462.9336		463.1338		461.7172		459.5415		459.9385		456.9255		456.2969		455.1742		455.3142		453.4906		452.4194		452.7310		452.3888		451.4075		
 1.320		     NaN		     NaN		     NaN		     NaN		     NaN		     NaN		     NaN		     NaN		     NaN		     NaN		     NaN		     NaN		     NaN		     NaN		     NaN		     NaN		     NaN		     NaN		     NaN		     NaN		     NaN		     NaN		     NaN		     NaN		     NaN		     NaN		     NaN		     NaN		     NaN		     NaN		     NaN		     NaN		     NaN		     NaN		     NaN		     NaN		     NaN		     NaN		     NaN		     NaN		     NaN		     NaN		     NaN		     NaN		     NaN		     NaN		     NaN		     NaN		     NaN		     NaN		     NaN		     NaN		707.6461		678.5756		650.3100		623.9597		601.2261		579.8586		561.5519		548.2321		536.6100		524.3611		516.3413		507.6162		501.6841		495.1565		490.4170		483.3535		481.4699		477.5086		473.0179		470.4892		468.9924		467.3775		464.6535		462.9988		463.2094		461.7980		459.6715		460.0491		456.9569		456.3501		455.2219		455.3675		453.4777		452.4409		452.7729		452.4640		451.4389		
 1.330		     NaN		     NaN		     NaN		     NaN		     NaN		     NaN		     NaN		     NaN		     NaN		     NaN		     NaN		     NaN		     NaN		     NaN		     NaN		     NaN		     NaN		     NaN		     NaN		     NaN		     NaN		     NaN		     NaN		     NaN		     NaN		     NaN		     NaN		     NaN		     NaN		     NaN		     NaN		     NaN		     NaN		     NaN		     NaN		     NaN		     NaN		     NaN		     NaN		     NaN		     NaN		     NaN		     NaN		     NaN		     NaN		     NaN		     NaN		     NaN		     NaN		     NaN		     NaN		     NaN		     NaN		     NaN		651.5431		625.0918		602.2685		580.7473		562.3159		548.9327		537.2081		524.8966		516.7834		508.0077		502.1183		495.4942		490.7859		483.6454		481.7256		477.7394		473.1439		470.6023		469.1933		467.5185		464.6915		463.0641		463.2850		461.8787		459.8014		460.1597		456.9883		456.4034		455.2695		455.4208		453.4648		452.4624		452.8148		452.5393		451.4703		
 1.340		     NaN		     NaN		     NaN		     NaN		     NaN		     NaN		     NaN		     NaN		     NaN		     NaN		     NaN		     NaN		     NaN		     NaN		     NaN		     NaN		     NaN		     NaN		     NaN		     NaN		     NaN		     NaN		     NaN		     NaN		     NaN		     NaN		     NaN		     NaN		     NaN		     NaN		     NaN		     NaN		     NaN		     NaN		     NaN		     NaN		     NaN		     NaN		     NaN		     NaN		     NaN		     NaN		     NaN		     NaN		     NaN		     NaN		     NaN		     NaN		     NaN		     NaN		     NaN		     NaN		     NaN		     NaN		     NaN		     NaN		603.3108		581.6361		563.0799		549.6332		537.8063		525.4321		517.2254		508.3991		502.5524		495.8320		491.1549		483.9372		481.9813		477.9702		473.2699		470.7155		469.3943		467.6594		464.7294		463.1293		463.3607		461.9594		459.9314		460.2703		457.0197		456.4566		455.3172		455.4741		453.4519		452.4839		452.8568		452.6145		451.5016		
 1.350		     NaN		     NaN		     NaN		     NaN		     NaN		     NaN		     NaN		     NaN		     NaN		     NaN		     NaN		     NaN		     NaN		     NaN		     NaN		     NaN		     NaN		     NaN		     NaN		     NaN		     NaN		     NaN		     NaN		     NaN		     NaN		     NaN		     NaN		     NaN		     NaN		     NaN		     NaN		     NaN		     NaN		     NaN		     NaN		     NaN		     NaN		     NaN		     NaN		     NaN		     NaN		     NaN		     NaN		     NaN		     NaN		     NaN		     NaN		     NaN		     NaN		     NaN		     NaN		     NaN		     NaN		     NaN		     NaN		     NaN		     NaN		     NaN		563.8439		550.3337		538.4044		525.9675		517.6675		508.7905		502.9865		496.1697		491.5238		484.2291		482.2370		478.2010		473.3959		470.8286		469.5952		467.8004		464.7674		463.1946		463.4363		462.0401		460.0614		460.3809		457.0511		456.5098		455.3648		455.5275		453.4389		452.5054		452.8987		452.6898		451.5330		
 1.360		     NaN		     NaN		     NaN		     NaN		     NaN		     NaN		     NaN		     NaN		     NaN		     NaN		     NaN		     NaN		     NaN		     NaN		     NaN		     NaN		     NaN		     NaN		     NaN		     NaN		     NaN		     NaN		     NaN		     NaN		     NaN		     NaN		     NaN		     NaN		     NaN		     NaN		     NaN		     NaN		     NaN		     NaN		     NaN		     NaN		     NaN		     NaN		     NaN		     NaN		     NaN		     NaN		     NaN		     NaN		     NaN		     NaN		     NaN		     NaN		     NaN		     NaN		     NaN		     NaN		     NaN		     NaN		     NaN		     NaN		     NaN		     NaN		     NaN		     NaN		     NaN		526.5030		518.1095		509.1820		503.4207		496.5075		491.8928		484.5209		482.4927		478.4318		473.5219		470.9417		469.7962		467.9414		464.8053		463.2599		463.5119		462.1209		460.1913		460.4915		457.0825		456.5631		455.4124		455.5808		453.4260		452.5269		452.9406		452.7650		451.5643		
 1.370		     NaN		     NaN		     NaN		     NaN		     NaN		     NaN		     NaN		     NaN		     NaN		     NaN		     NaN		     NaN		     NaN		     NaN		     NaN		     NaN		     NaN		     NaN		     NaN		     NaN		     NaN		     NaN		     NaN		     NaN		     NaN		     NaN		     NaN		     NaN		     NaN		     NaN		     NaN		     NaN		     NaN		     NaN		     NaN		     NaN		     NaN		     NaN		     NaN		     NaN		     NaN		     NaN		     NaN		     NaN		     NaN		     NaN		     NaN		     NaN		     NaN		     NaN		     NaN		     NaN		     NaN		     NaN		     NaN		     NaN		     NaN		     NaN		     NaN		     NaN		     NaN		     NaN		     NaN		     NaN		     NaN		     NaN		492.2617		484.8128		482.7484		478.6626		473.6479		471.0548		469.9972		468.0824		464.8432		463.3251		463.5875		462.2016		460.3213		460.6021		457.1139		456.6163		455.4601		455.6341		453.4131		452.5484		452.9825		452.8403		451.5957		
 1.380		     NaN		     NaN		     NaN		     NaN		     NaN		     NaN		     NaN		     NaN		     NaN		     NaN		     NaN		     NaN		     NaN		     NaN		     NaN		     NaN		     NaN		     NaN		     NaN		     NaN		     NaN		     NaN		     NaN		     NaN		     NaN		     NaN		     NaN		     NaN		     NaN		     NaN		     NaN		     NaN		     NaN		     NaN		     NaN		     NaN		     NaN		     NaN		     NaN		     NaN		     NaN		     NaN		     NaN		     NaN		     NaN		     NaN		     NaN		     NaN		     NaN		     NaN		     NaN		     NaN		     NaN		     NaN		     NaN		     NaN		     NaN		     NaN		     NaN		     NaN		     NaN		     NaN		     NaN		     NaN		     NaN		     NaN		     NaN		     NaN		     NaN		     NaN		     NaN		     NaN		     NaN		     NaN		464.8812		463.3904		463.6632		462.2823		460.4512		460.7128		457.1453		456.6695		455.5077		455.6874		453.4001		452.5699		453.0244		452.9155		451.6271		
 1.390		     NaN		     NaN		     NaN		     NaN		     NaN		     NaN		     NaN		     NaN		     NaN		     NaN		     NaN		     NaN		     NaN		     NaN		     NaN		     NaN		     NaN		     NaN		     NaN		     NaN		     NaN		     NaN		     NaN		     NaN		     NaN		     NaN		     NaN		     NaN		     NaN		     NaN		     NaN		     NaN		     NaN		     NaN		     NaN		     NaN		     NaN		     NaN		     NaN		     NaN		     NaN		     NaN		     NaN		     NaN		     NaN		     NaN		     NaN		     NaN		     NaN		     NaN		     NaN		     NaN		     NaN		     NaN		     NaN		     NaN		     NaN		     NaN		     NaN		     NaN		     NaN		     NaN		     NaN		     NaN		     NaN		     NaN		     NaN		     NaN		     NaN		     NaN		     NaN		     NaN		     NaN		     NaN		     NaN		     NaN		     NaN		     NaN		     NaN		     NaN		     NaN		     NaN		     NaN		     NaN		     NaN		     NaN		     NaN		     NaN		     NaN		
