Data from https://doi.org/10.1016/j.apmt.2021.101023
Specific heat capacity (J/kg/K) at different applied pressures (bar), upon heating.
IMPORTANT NOTE: The specific heat capacity for different applied pressures
is estracted from the graphs of entropy change and calculated via the relation
cp = T(ds/dT). This means that the error in the values can be quite big and one
should keep in mind that the position, rather than the absolute value of the
specific heat capacity is accurate. The most accurate values for the specific
heat capacity is at zero applied pressure.

0.0	225.0000	225.2500	225.5000	225.7500	226.0000	226.2500	226.5000	226.7500	227.0000	227.2500	227.5000	227.7500	228.0000	228.2500	228.5000	228.7500	229.0000	229.2500	229.5000	229.7500	230.0000	230.2500	230.5000	230.7500	231.0000	231.2500	231.5000	231.7500	232.0000	232.2500	232.5000	232.7500	233.0000	233.2500	233.5000	233.7500	234.0000	234.2500	234.5000	234.7500	235.0000	235.2500	235.5000	235.7500	236.0000	236.2500	236.5000	236.7500	237.0000	237.2500	237.5000	237.7500	238.0000	238.2500	238.5000	238.7500	239.0000	239.2500	239.5000	239.7500	240.0000	240.2500	240.5000	240.7500	241.0000	241.2500	241.5000	241.7500	242.0000	242.2500	242.5000	242.7500	243.0000	243.2500	243.5000	243.7500	244.0000	244.2500	244.5000	244.7500	245.0000	245.2500	245.5000	245.7500	246.0000	246.2500	246.5000	246.7500	247.0000	247.2500	247.5000	247.7500	248.0000	248.2500	248.5000	248.7500	249.0000	249.2500	249.5000	249.7500	250.0000	250.2500	250.5000	250.7500	251.0000	251.2500	251.5000	251.7500	252.0000	252.2500	252.5000	252.7500	253.0000	253.2500	253.5000	253.7500	254.0000	254.2500	254.5000	254.7500	255.0000	255.2500	255.5000	255.7500	256.0000	256.2500	256.5000	256.7500	257.0000	257.2500	257.5000	257.7500	258.0000	258.2500	258.5000	258.7500	259.0000	259.2500	259.5000	259.7500	260.0000	260.2500	260.5000	260.7500	261.0000	261.2500	261.5000	261.7500	262.0000	262.2500	262.5000	262.7500	263.0000	263.2500	263.5000	263.7500	264.0000	264.2500	264.5000	264.7500	265.0000	265.2500	265.5000	265.7500	266.0000	266.2500	266.5000	266.7500	267.0000	267.2500	267.5000	267.7500	268.0000	268.2500	268.5000	268.7500	269.0000	269.2500	269.5000	269.7500	270.0000	270.2500	270.5000	270.7500	271.0000	271.2500	271.5000	271.7500	272.0000	272.2500	272.5000	272.7500	273.0000	273.2500	273.5000	273.7500	274.0000	274.2500	274.5000	274.7500	275.0000	275.2500	275.5000	275.7500	276.0000	276.2500	276.5000	276.7500	277.0000	277.2500	277.5000	277.7500	278.0000	278.2500	278.5000	278.7500	279.0000	279.2500	279.5000	279.7500	280.0000	280.2500	280.5000	280.7500	281.0000	281.2500	281.5000	281.7500	282.0000	282.2500	282.5000	282.7500	283.0000	283.2500	283.5000	283.7500	284.0000	284.2500	284.5000	284.7500	285.0000	285.2500	285.5000	285.7500	286.0000	286.2500	286.5000	286.7500	287.0000	287.2500	287.5000	287.7500	288.0000	288.2500	288.5000	288.7500	289.0000	289.2500	289.5000	289.7500	290.0000	290.2500	290.5000	290.7500	291.0000	291.2500	291.5000	291.7500	292.0000	292.2500	292.5000	292.7500	293.0000	293.2500	293.5000	293.7500	294.0000	294.2500	294.5000	294.7500	295.0000	295.2500	295.5000	295.7500	296.0000	296.2500	296.5000	296.7500	297.0000	297.2500	297.5000	297.7500	298.0000	298.2500	298.5000	298.7500	299.0000	299.2500	299.5000	299.7500	300.0000	300.2500	300.5000	300.7500	301.0000	301.2500	301.5000	301.7500	302.0000	302.2500	302.5000	302.7500	303.0000	303.2500	303.5000	303.7500	304.0000	304.2500	304.5000	304.7500	305.0000	305.2500	305.5000	305.7500	306.0000	306.2500	306.5000	306.7500	307.0000	307.2500	307.5000	307.7500	308.0000	308.2500	308.5000	308.7500	309.0000	309.2500	309.5000	309.7500	310.0000	310.2500	310.5000	310.7500	311.0000	311.2500	311.5000	311.7500	312.0000	312.2500	312.5000	312.7500	313.0000	313.2500	313.5000	313.7500	314.0000	314.2500	314.5000	314.7500	315.0000	315.2500	315.5000	315.7500	316.0000	316.2500	316.5000	316.7500	317.0000	317.2500	317.5000	317.7500	318.0000	318.2500	318.5000	318.7500	319.0000	319.2500	319.5000	319.7500	320.0000	320.2500	320.5000	320.7500	321.0000	321.2500	321.5000	321.7500	322.0000	322.2500	322.5000	322.7500	323.0000	323.2500	323.5000	323.7500	324.0000	324.2500	324.5000	324.7500	325.0000	325.2500	325.5000	325.7500	326.0000	326.2500	326.5000	326.7500	327.0000	327.2500	327.5000	327.7500	328.0000	328.2500	328.5000	328.7500	329.0000	329.2500	329.5000	329.7500	330.0000	330.2500	330.5000	330.7500	331.0000	331.2500	331.5000	331.7500	332.0000	332.2500	332.5000	332.7500	333.0000	333.2500	333.5000	333.7500	334.0000	334.2500	334.5000	334.7500	
0.0000	868.8400	870.0440	871.2540	872.4540	873.6640	874.8640	876.0740	877.2740	878.4840	879.6940	880.8940	882.1040	883.3040	884.5140	885.7140	886.9240	888.1300	889.3340	890.5440	891.7440	892.9540	894.1540	895.3640	896.5700	897.7740	898.9840	900.1840	901.3940	902.5940	903.8040	905.0100	906.2140	907.4240	908.6240	909.8340	911.0340	912.2440	913.4500	914.6540	915.8640	917.0640	918.2740	919.4740	920.6840	921.8840	923.0940	924.3040	925.5040	926.7140	927.9140	929.1240	930.3240	931.5340	932.7400	933.9440	935.1540	936.3540	937.5640	938.7640	939.9740	941.1800	942.3900	943.6040	944.8140	946.0240	947.2340	948.4440	949.6540	950.8640	952.0740	953.2840	954.4940	955.7100	956.9200	958.1340	959.3440	960.5540	961.7640	962.9740	964.1840	965.3940	966.6040	967.8140	969.0240	970.2400	971.4500	972.6600	973.8740	1275.6680	1079.4660	948.1840	1024.8660	1058.9840	1019.1280	1122.6580	1084.3680	1124.0300	1416.8380	1815.5000	2228.7640	2624.5400	3040.7820	3432.3720	3766.7340	3995.0900	4237.7100	4486.5720	4626.8880	4816.2020	4865.4660	4998.8500	5106.2660	5144.5080	5193.3740	5198.6460	5193.9780	5166.3060	5104.6920	5004.9460	4957.4240	4840.3240	4728.7440	4569.6520	4454.3240	4370.9040	4270.2300	4144.1760	4020.4680	3884.6500	3789.6160	3639.5860	3536.0720	3352.0460	3249.3120	3182.8440	3015.6780	2890.6340	2763.3440	2622.3800	2514.8180	2378.4580	2239.2340	2129.6340	2068.8340	1975.1860	1853.7500	1767.3580	1720.1380	1681.0700	1585.7540	1517.0460	1477.2540	1398.1760	1356.5340	1353.6240	1260.0980	1290.4360	1274.5320	1275.5120	1238.4920	1191.6260	1205.5300	1195.0160	1171.4960	1173.1620	1174.8320	1176.5020	1178.1720	1179.8360	1181.5060	1183.1760	1184.8420	1186.5120	1188.1820	1189.8520	1191.5160	1193.1860	1194.8520	1196.5220	1198.1920	1199.8820	1201.8900	1203.9100	1205.9300	1207.9540	1209.9740	1211.9940	1214.0200	1216.0400	1218.0600	1220.0840	1222.1040	1224.1240	1226.1500	1228.1700	1230.1900	1232.2140	1234.2340	1236.2540	1238.2800	1240.3000	1242.3200	1244.3440	1246.3640	1248.3840	1250.4100	1252.4300	1254.4500	1256.4740	1258.4940	1260.5140	1262.5400	1264.5600	1266.5800	1268.6000	1270.6240	1272.6440	1274.6700	1276.6900	1278.7100	1280.7380	1282.8380	1284.9480	1287.0580	1289.1580	1291.2680	1293.3780	1295.4780	1297.5880	1299.6980	1301.8020	1303.9080	1306.0180	1308.1220	1310.2280	1312.3380	1314.4480	1316.5480	1318.6580	1320.7680	1322.8680	1324.9780	1327.0880	1329.1880	1331.2980	1333.4080	1335.5120	1337.6180	1339.7280	1341.8320	1343.9380	1346.0480	1348.1580	1350.2580	1352.3680	1354.4780	1356.5780	1358.6880	1360.7980	1362.9020	1364.9920	1366.8280	1368.6480	1370.4740	1372.2940	1374.1180	1375.9440	1377.7640	1379.5880	1381.4080	1383.2340	1385.0580	1386.8780	1388.7040	1390.5240	1392.3480	1394.1740	1395.9940	1397.8180	1399.6440	1401.4640	1403.2880	1405.1080	1406.9340	1408.7580	1410.5780	1412.4040	1414.2240	1416.0480	1417.8740	1419.6940	1421.5180	1423.3380	1425.0640	1426.6440	1428.2240	1429.8040	1431.3780	1432.9580	1434.5380	1436.0900	1437.2180	1438.3280	1439.4380	1440.5480	1441.6520	1442.7580	1443.8680	1444.9780	1446.0880	1447.1980	1448.3020	1449.4080	1450.5180	1451.6280	1452.7380	1453.8420	1454.9480	1456.0580	1457.1680	1458.2780	1459.3880	1460.4920	1461.5980	1462.7080	1463.8180	1464.9280	1466.0380	1467.1420	1468.2480	1469.3580	1470.4680	1471.5780	1472.6880	1473.7880	1474.8980	1476.0080	1477.1180	1478.2280	1479.3320	1480.4020	1480.8660	1481.3060	1481.7460	1482.1820	1482.6220	1483.0560	1483.4960	1483.9360	1484.3760	1484.8120	1485.2520	1485.6860	1486.1260	1486.5660	1487.0060	1487.4460	1487.8820	1488.3160	1488.7560	1489.1960	1489.6360	1490.0760	1490.5120	1490.9520	1491.3860	1491.8260	1492.2660	1492.7060	1493.1420	1493.5820	1494.0160	1494.4560	1494.8960	1495.3360	1495.7760	1496.2120	1496.6460	1497.0860	1497.5260	1497.9420	1497.9940	1498.0300	1498.0640	1498.1040	1498.1400	1498.1740	1498.2140	1498.2500	1498.2840	1498.3240	1498.3600	1498.3940	1498.4340	1498.4700	1498.5040	1498.5440	1498.5800	1498.6140	1498.6540	1498.6840	1498.7240	1498.7640	1498.7940	1498.8340	1498.8700	1498.9040	1498.9440	1498.9800	1499.0140	1499.0540	1499.0900	1499.1240	1499.1640	1499.2000	1499.2340	1499.2740	1499.3100	1499.3440	1499.3840	1499.4200	1499.4060	1499.3900	1499.3800	1499.3700	1499.3600	1499.3460	1499.3300	1499.3200	1499.3100	1499.2960	1499.2800	1499.2700	1499.2600	1499.2500	1499.2360	1499.2200	1499.2100	1499.2000	1499.1860	
0.5000	887.6351	887.4285	885.6712	877.5362	869.4012	861.2663	853.1313	844.9964	844.4864	849.9969	855.5073	861.0177	866.5282	872.0386	873.3467	874.2994	875.2520	876.2046	877.1573	877.1154	874.5861	872.0567	869.5274	866.9980	864.4687	873.2759	888.2196	903.1633	918.1070	933.0507	947.7990	946.4655	945.1320	943.7985	942.4649	941.1314	939.7873	938.4257	937.0640	935.7023	934.3407	932.9790	928.9615	924.0051	919.0486	914.0921	909.1357	904.7819	905.7346	906.6872	907.6398	908.5925	909.5451	915.5386	927.3179	939.0972	950.8766	962.6559	974.4352	983.8220	992.7146	1001.6072	1010.4999	1019.3925	1018.0533	973.7657	929.4782	885.1907	840.9032	798.5402	830.6216	862.7031	894.7845	926.8660	958.9474	991.0288	994.5675	995.5836	996.5998	997.6159	998.6320	997.8997	992.7245	987.5493	982.3741	977.1989	972.0237	974.0387	980.0007	985.9628	991.9248	997.8868	1003.7501	998.4969	993.2438	987.9906	982.7374	977.4842	971.7359	965.1531	958.5703	951.9875	945.4047	938.8219	948.9460	965.0751	981.2042	997.3333	1013.4624	1028.0984	1029.1145	1030.1306	1031.1468	1032.1629	1033.1790	1034.1951	1035.2112	1036.2273	1037.2433	1038.2594	1039.2755	1038.1654	1036.6062	1035.0469	1033.4877	1031.9285	1031.0986	1033.4024	1035.7062	1038.0100	1040.3138	1042.6175	1044.9213	1047.2251	1049.5289	1051.8327	1054.1365	1056.4403	1057.5651	1058.5812	1059.5974	1060.6135	1061.6296	1062.6363	1063.6185	1064.6007	1065.5829	1066.5651	1067.5473	1157.7890	1297.7183	1437.6475	1577.5767	1717.5059	1895.8155	2136.3224	2376.8292	2617.3361	2898.0557	3300.7109	3703.3661	4263.7916	5084.2708	5585.4162	5491.4227	5397.4293	5303.4359	6570.5136	7391.7510	7281.3270	7170.9030	7060.4789	6950.0549	6839.6309	6729.2069	6618.7828	6508.3588	6397.9348	6287.5108	6177.0867	6066.6627	5956.2387	5845.8146	5735.3906	5624.9666	5177.7708	4689.4611	4201.1514	3834.2057	3746.1733	3658.1408	3570.1083	3482.0759	3394.0434	3290.3259	3157.1696	3024.0133	2890.8571	2757.7008	2464.2391	2142.9310	1821.6229	1764.5019	1716.5662	1668.6305	1629.0974	1611.6500	1594.2026	1576.7552	1530.8924	1458.5889	1386.2854	1313.9819	1279.6121	1270.1542	1260.6964	1251.2385	1241.7807	1262.5551	1288.6814	1314.8077	1340.9340	1367.0603	1358.6312	1330.7646	1302.8981	1275.0315	1247.1649	1261.4434	1291.3732	1321.3029	1351.2326	1378.9410	1339.4534	1299.9658	1260.4782	1220.9906	1192.1219	1240.2493	1288.3768	1336.5042	1384.6316	1432.7590	1415.1575	1391.1820	1367.2066	1343.2311	1319.2777	1322.7964	1326.3150	1329.8337	1333.3524	1338.0621	1354.8147	1371.5673	1388.3199	1405.0725	1421.8250	1412.9971	1400.6942	1388.3913	1376.0883	1363.7854	1353.8358	1344.6441	1335.4524	1326.2608	1317.0691	1322.1623	1355.8424	1389.5226	1423.2028	1456.8829	1490.5631	1465.7369	1435.1243	1404.5118	1373.8992	1343.2867	1352.0836	1360.9120	1369.7405	1378.5689	1389.7475	1406.3578	1422.9681	1439.5784	1456.1887	1457.0584	1447.6427	1438.2270	1428.8112	1419.3955	1413.5848	1408.1410	1402.6973	1397.2536	1391.8098	1394.7210	1397.6590	1400.5970	1403.5350	1406.4730	1420.3528	1442.3663	1464.3799	1486.3935	1508.4071	1522.9973	1495.6531	1468.3089	1440.9648	1413.6206	1387.7220	1415.1354	1442.5488	1469.9621	1497.3755	1524.7888	1512.8059	1491.9868	1471.1678	1450.3487	1429.5296	1421.2039	1418.4284	1415.6530	1412.8775	1410.1021	1417.7091	1453.5016	1489.2942	1525.0867	1560.8792	1596.6718	1563.0724	1516.8415	1470.6105	1424.3795	1378.1486	1382.3653	1406.0064	1429.6475	1453.2886	1476.9297	1496.3834	1511.8523	1527.3212	1542.7901	1558.2591	1542.2824	1505.4813	1468.6802	1431.8792	1395.0781	1419.0830	1449.5154	1479.9478	1510.3802	1528.9455	1502.1044	1475.2633	1448.4223	1421.5812	1413.5161	1450.0219	1486.5277	1523.0335	1559.5393	1590.3918	1561.7681	1533.1444	1504.5206	1475.8969	1452.0236	1450.3909	1448.7582	1447.1254	1445.4927	1460.5365	1493.7337	1526.9308	1560.1279	1593.3251	1582.5274	1559.4365	1536.3455	1513.2546	1490.1636	1471.5308	1453.5594	1435.5881	1417.6167	1399.6454	1402.5711	1431.2868	1460.0026	1488.7183	1517.4340	1545.6042	1551.9631	1558.3219	1564.6807	1571.0396	1572.7801	1538.6276	1504.4750	1470.3225	1436.1700	1413.1371	1433.7072	1454.2773	1474.8474	1495.4175	1515.9876	1503.8970	1491.5961	1479.2952	1466.9943	1454.6934	1475.0854	1500.3971	1525.7088	1551.0205	1576.3322	1574.0412	1557.5052	1540.9692	1524.4332	1507.8972	1488.3528	1467.7992	1447.2457	1426.6921	1406.1386	1429.3897	1461.1091	1492.8285	1524.5478	1556.2672	
1.0000	370.6091	370.6091	370.6091	392.9062	480.0044	567.1027	654.2009	741.2991	828.3973	869.2569	881.6803	894.1037	906.5271	918.9505	931.3739	928.0466	924.4436	920.8406	917.2377	913.6347	911.2182	911.0442	910.8702	910.6963	910.5223	910.3483	902.7031	891.9945	881.2858	870.5772	859.8685	851.2898	869.8389	888.3880	906.9371	925.4862	944.0353	956.4874	961.0528	965.6181	970.1834	974.7488	979.3141	952.5118	917.8479	883.1840	848.5202	813.8563	790.2321	823.3791	856.5262	889.6732	922.8203	955.9673	971.5801	971.3920	971.2039	971.0158	970.8277	970.6396	967.2065	963.3707	959.5349	955.6990	951.8632	949.8610	953.2783	956.6956	960.1129	963.5302	966.9475	962.7623	953.8378	944.9133	935.9889	927.0644	918.1399	927.5567	937.3555	947.1542	956.9530	966.7518	975.3502	981.1479	986.9456	992.7432	998.5409	1004.3386	1005.8804	1005.6500	1005.4196	1005.1891	1004.9587	1004.4655	1000.4604	996.4552	992.4501	988.4449	984.4398	985.3205	992.6042	999.8880	1007.1718	1014.4555	1021.7393	1017.9793	1011.3890	1004.7986	998.2083	991.6180	985.0143	978.3397	971.6652	964.9907	958.3162	951.6416	956.9848	973.2973	989.6099	1005.9225	1022.2350	1038.5476	1041.3075	1042.3237	1043.3398	1044.3559	1045.3721	1046.3882	1047.4043	1048.4203	1049.4364	1050.4524	1051.4685	1055.5432	1061.5505	1067.5578	1073.5651	1079.5725	1085.5798	1046.0757	1005.4716	964.8675	924.2635	883.6594	895.5232	928.2803	961.0373	993.7944	1026.5515	1059.3086	1069.7581	1070.7743	1071.7904	1072.8065	1073.8227	1074.8388	1075.8549	1076.8709	1077.8870	1078.9031	1079.9191	1080.9352	1081.9513	1082.9673	1083.9834	1084.9995	1086.0155	1087.0316	1088.0478	1089.0639	1090.0800	1091.0962	1091.6047	1089.3752	1087.1457	1084.9162	1082.6866	1080.4571	1083.0695	1090.1584	1097.2474	1104.3364	1111.4253	1118.5143	1110.9511	1101.4428	1091.9345	1082.4262	1072.9178	1078.6652	1084.8456	1091.0259	1097.2063	1103.3867	1106.6150	1107.4203	1108.2256	1109.0309	1109.8361	1110.6414	1181.2367	1258.5326	1335.8285	1413.1244	1490.4203	1561.0832	1624.8201	1688.5570	1752.2939	1816.0308	2186.5892	2667.6567	3148.7242	3629.7918	3863.9801	4044.2689	5268.8237	6859.5204	6996.7698	6900.5499	6804.3301	6708.1102	6611.8903	6515.6704	6419.4506	6323.2307	6227.0108	6130.7909	6049.0496	6068.4727	6087.8959	6107.3190	6126.7422	6146.1653	6165.5885	5867.5967	4400.9948	4051.1630	3972.8880	4025.6596	4117.8406	4210.0217	4302.2027	4286.4550	4145.6292	4004.8034	3863.9776	3723.1517	3582.3259	3441.5001	3296.0607	2977.7868	2659.5129	2397.9375	2211.1535	2024.3696	1911.3868	1878.7405	1846.0943	1813.4481	1788.0241	1764.5432	1741.0622	1716.8594	1669.6330	1622.4066	1575.1802	1532.3436	1522.9603	1513.5769	1504.1936	1494.8102	1484.2231	1472.7470	1461.2709	1449.7948	1438.3186	1433.4948	1429.5953	1425.6958	1421.7963	1416.4957	1404.8468	1393.1980	1381.5491	1369.9003	1376.9157	1403.8611	1430.8066	1457.7521	1484.6976	1475.1424	1455.6731	1436.2038	1416.7345	1400.6513	1419.1439	1437.6365	1456.1291	1474.6217	1473.9931	1443.7070	1413.4209	1383.1349	1352.8488	1358.6954	1403.4981	1448.3007	1493.1033	1537.9060	1558.2378	1512.9418	1467.6458	1422.3498	1377.0539	1342.5407	1370.2990	1398.0573	1425.8156	1453.5739	1481.3322	1488.0077	1493.2801	1498.5524	1503.8248	1508.4072	1488.3160	1468.2249	1448.1337	1428.0425	1422.0230	1444.5731	1467.1232	1489.6733	1512.2235	1514.4846	1504.9724	1495.4603	1485.9482	1476.4360	1479.0445	1482.4873	1485.9302	1489.3730	1486.8516	1465.2769	1443.7021	1422.1274	1400.5526	1400.5756	1444.9278	1489.2801	1533.6324	1577.9846	1612.0463	1569.1904	1526.3346	1483.4787	1440.6228	1397.7669	1416.9853	1436.6035	1456.2217	1475.8399	1495.4580	1501.5900	1504.0065	1506.4229	1508.8393	1511.2557	1510.0034	1508.2184	1506.4333	1504.6483	1502.5836	1499.2098	1495.8360	1492.4622	1489.0884	1483.3927	1471.2634	1459.1341	1447.0048	1434.8755	1422.7462	1450.8551	1486.5146	1522.1741	1557.8337	1593.4932	1599.2725	1563.6528	1528.0331	1492.4135	1456.7938	1439.5892	1440.1912	1440.7933	1441.3953	1441.9973	1461.7355	1494.3591	1526.9827	1559.6064	1592.2300	1598.7529	1564.1063	1529.4597	1494.8132	1460.1666	1449.3834	1464.7439	1480.1044	1495.4648	1510.8253	1499.3509	1467.3334	1435.3159	1403.2985	1371.2810	1352.0057	1408.9703	1465.9348	1522.8994	1579.8639	1636.8284	1636.3532	1613.5404	1590.7275	1567.9146	1545.1017	1519.6903	1492.5174	1465.3446	1438.1718	1410.9989	1393.9349	1425.2622	1456.5895	1487.9168	
1.5000	452.8551	452.8551	452.8551	452.8551	452.8551	452.8551	452.8551	452.8551	452.8551	452.8551	452.8551	452.8551	452.8551	452.8551	452.8551	532.7831	614.1100	695.4369	776.7637	858.0906	905.9923	890.7148	875.4373	860.1597	844.8822	829.6047	840.7149	862.6451	884.5754	906.5056	928.4359	948.8436	949.8596	950.8757	951.8918	952.9078	953.9239	947.2027	930.4729	913.7431	897.0133	880.2834	863.5536	866.6381	874.6885	882.7390	890.7894	898.8398	907.2938	917.8231	928.3524	938.8817	949.4110	959.9403	962.9283	959.1204	955.3126	951.5047	947.6969	943.8890	946.4961	949.8993	953.3025	956.7057	960.1089	959.2076	945.5833	931.9591	918.3349	904.7106	891.0864	897.7382	917.0295	936.3208	955.6122	974.9035	994.1949	995.5838	996.5998	997.6159	998.6319	999.6480	999.1345	995.6886	992.2428	988.7969	985.3510	981.9051	986.6965	994.9181	1003.1397	1011.3613	1019.5829	1026.6285	1017.9535	1009.2786	1000.6036	991.9286	983.8625	979.0217	974.1809	969.3402	964.4994	959.6586	959.0794	960.0320	960.9845	961.9371	962.8896	964.9747	977.3900	989.8052	1002.2204	1014.6357	1027.0509	1034.1951	1035.2112	1036.2273	1037.2433	1038.2594	1039.2755	1040.2915	1041.3076	1042.3237	1043.3397	1044.3558	1046.7621	1055.1420	1063.5219	1071.9018	1080.2816	1088.6615	1067.4663	1022.3070	977.1477	931.9883	886.8290	841.6697	848.9257	894.1376	939.3495	984.5614	1029.7733	1062.6458	1063.6618	1064.6779	1065.6940	1066.7100	1067.7261	1068.7422	1069.7582	1070.7743	1071.7903	1072.8064	1073.8225	1074.8386	1075.8547	1076.8709	1077.8870	1078.9032	1079.4256	1079.1047	1078.7837	1078.4627	1078.1417	1077.8208	1074.5362	1070.1689	1065.8015	1061.4341	1057.0668	1053.8566	1061.5937	1069.3308	1077.0678	1084.8049	1092.5420	1097.1928	1098.2088	1099.2249	1100.2410	1101.2570	1102.2731	1104.4119	1106.7933	1109.1746	1111.5559	1113.9372	1115.5571	1113.8354	1112.1138	1110.3922	1108.6705	1106.9489	1107.4845	1109.8729	1112.2612	1114.6496	1117.0380	1119.4264	1120.5627	1121.5787	1122.5948	1123.6108	1124.6269	1125.6430	1126.6591	1127.6753	1128.6914	1129.7075	1130.7237	1131.7398	1132.7558	1133.7719	1134.7880	1135.8040	1136.7796	1120.9045	1105.0294	1089.1543	1073.2792	1057.4041	1061.7996	1101.3692	1140.9388	1180.5083	1220.0779	1259.6475	1237.8115	1193.1715	1148.5315	1103.8914	1059.2514	1027.6416	1045.0498	1062.4581	1079.8664	1097.2747	1114.6830	1129.5514	1136.4814	1143.4114	1150.3414	1157.2715	1164.2015	1166.2868	1167.3028	1168.3189	1169.3350	1170.3510	1174.5122	1192.7709	1211.0296	1229.2883	1247.5470	1265.8057	1306.8956	1366.9695	1427.0435	1487.1174	1547.1914	1628.6069	1862.4724	2096.3379	2330.2033	2564.0688	2828.5246	3178.2625	3528.0005	4360.4384	6189.0367	7541.4337	7851.5331	8161.6326	8471.7320	8781.8314	9091.9309	9402.0303	9712.1297	10022.2292	9946.6162	9410.8552	8875.0942	8339.3331	7803.5721	7267.8111	6732.0500	6051.4070	5249.9952	5049.2626	4848.5300	4647.7974	4447.0648	4050.6968	3631.1281	3682.0633	3732.9985	3288.5634	2863.2033	3053.1223	3243.0414	3273.4931	2924.6710	2575.8489	2428.2131	2396.5195	2364.8260	2178.2299	1956.7048	1735.1797	1733.7586	1748.8027	1763.8469	1754.3310	1667.0416	1579.7523	1492.4629	1435.1014	1439.7280	1444.3547	1448.9813	1453.6080	1465.9625	1480.4361	1494.9097	1509.3833	1520.8284	1500.7312	1480.6339	1460.5366	1440.4393	1429.6855	1433.5211	1437.3567	1441.1923	1445.0280	1456.3294	1470.9351	1485.5407	1500.1464	1514.7521	1520.4920	1526.1963	1531.9006	1537.6049	1531.5685	1497.9797	1464.3910	1430.8022	1397.2135	1384.9924	1406.4750	1427.9576	1449.4402	1470.9228	1490.3999	1500.6411	1510.8823	1521.1235	1531.3648	1533.3253	1512.6225	1491.9196	1471.2167	1450.5139	1455.9271	1481.0098	1506.0925	1531.1752	1556.2579	1524.1500	1483.7372	1443.3245	1402.9117	1362.4989	1407.4661	1455.7690	1504.0719	1552.3748	1600.6777	1581.8312	1540.9345	1500.0379	1459.1412	1418.2446	1442.5880	1479.1735	1515.7591	1552.3447	1580.7251	1560.6448	1540.5645	1520.4841	1500.4038	1483.7981	1478.5413	1473.2846	1468.0278	1462.7710	1457.5142	1462.1625	1469.1161	1476.0697	1483.0233	1489.9769	1491.1625	1483.2502	1475.3378	1467.4254	1459.5131	1457.1688	1470.3798	1483.5907	1496.8016	1510.0126	1522.7524	1527.2388	1531.7253	1536.2117	1540.6981	1541.4109	1519.5448	1497.6788	1475.8127	1453.9466	1440.5121	1454.8639	1469.2158	1483.5676	1497.9194	1511.5124	1492.5803	1473.6482	1454.7161	1435.7840	1416.8519	1446.3311	1481.2612	1516.1913	1551.1214	
2.0000	451.8744	451.8744	451.8744	451.8744	451.8744	451.8744	451.8744	451.8744	451.8744	451.8744	451.8744	451.8744	451.8744	451.8744	451.8744	451.8744	451.8744	451.8744	451.8744	451.8744	451.8744	451.8744	451.8744	451.8744	451.8744	451.8744	511.9092	596.5606	681.2120	765.8634	850.5148	927.7919	911.1479	894.5039	877.8600	861.2160	844.5720	841.7623	856.8482	871.9341	887.0200	902.1059	917.1917	920.9936	921.9673	922.9410	923.9147	924.8885	924.6929	918.4840	912.2752	906.0664	899.8576	893.6487	898.7968	914.1791	929.5614	944.9436	960.3259	975.7082	978.3102	979.3263	980.3424	981.3584	982.3745	981.8507	976.7755	971.7002	966.6250	961.5497	956.4745	958.1492	964.0317	969.9141	975.7966	981.6791	987.5615	975.3904	962.8433	950.2962	937.7492	925.2021	919.8247	928.1926	936.5606	944.9285	953.2965	961.6645	970.0926	978.5459	986.9991	995.4523	1003.9056	1011.8412	1012.8573	1013.8733	1014.8894	1015.9054	1016.9215	1016.4447	1014.0114	1011.5781	1009.1448	1006.7115	1004.2782	985.7504	963.0978	940.4453	917.7927	895.1401	872.4876	888.0421	920.7942	953.5463	986.2984	1019.0506	1035.2111	1036.2271	1037.2432	1038.2593	1039.2753	1040.2914	1041.3075	1042.3237	1043.3398	1044.3559	1045.3721	1044.7709	1039.3076	1033.8443	1028.3810	1022.9177	1017.4543	1019.1340	1025.3269	1031.5199	1037.7129	1043.9058	1050.0988	1052.5092	1054.8282	1057.1472	1059.4662	1061.7852	1063.6617	1064.6778	1065.6938	1066.7099	1067.7260	1068.7420	1061.3823	1050.4807	1039.5791	1028.6775	1017.7759	1008.0098	1014.2094	1020.4090	1026.6085	1032.8081	1039.0077	1043.6077	1046.0838	1048.5599	1051.0359	1053.5120	1055.9881	1061.0585	1067.4370	1073.8155	1080.1940	1086.5725	1092.1123	1093.1284	1094.1444	1095.1605	1096.1766	1097.1926	1098.2087	1099.2248	1100.2408	1101.2569	1102.2730	1103.2890	1104.3051	1105.3213	1106.3374	1107.3536	1108.3697	1109.3858	1110.4019	1111.4179	1112.4340	1113.4501	1114.4661	1115.4822	1116.4983	1117.5143	1118.5304	1119.5465	1120.5625	1123.8557	1127.2126	1130.5694	1133.9263	1137.2831	1140.2978	1142.6377	1144.9775	1147.3174	1149.6572	1151.9970	1146.1166	1139.4549	1132.7932	1126.1315	1119.4698	1112.7861	1105.9552	1099.1243	1092.2934	1085.4625	1081.6003	1094.2497	1106.8990	1119.5483	1132.1976	1144.8469	1149.0133	1150.0293	1151.0454	1152.0615	1153.0775	1154.0936	1155.1097	1156.1259	1157.1420	1158.1581	1159.1743	1160.1904	1161.2065	1162.2225	1163.2386	1164.2546	1165.2707	1166.2868	1167.3028	1168.3189	1169.3350	1170.3510	1171.3671	1172.3832	1173.3994	1174.4155	1175.4317	1176.4478	1177.4639	1178.4800	1179.4960	1180.5121	1181.5281	1182.5442	1183.5603	1184.5763	1185.5924	1186.6085	1187.6245	1188.6406	1189.6568	1190.6729	1191.6890	1192.7052	1193.7213	1186.2764	1173.9891	1161.7017	1149.4144	1137.1270	1124.8397	1157.8366	1190.8697	1223.9029	1256.9361	1289.9692	1308.4523	1301.3365	1294.2206	1287.1047	1279.9888	1272.8729	1257.8714	1239.8937	1221.9160	1203.9384	1185.9607	1188.5211	1195.7373	1202.9535	1210.1697	1217.3859	1222.1717	1223.1877	1224.2038	1225.2199	1226.2359	1227.2520	1228.9041	1230.7623	1232.6205	1234.4787	1236.3369	1246.0312	1313.8497	1381.6682	1449.4867	1517.3052	1585.1236	1748.3979	1953.4444	2158.4909	2363.5374	2572.1750	2960.4398	3348.7047	3736.9696	4098.3192	4456.6648	6197.3288	8098.0710	7768.7837	7439.4964	7110.2091	6780.9218	6451.6345	6122.3472	5837.2222	5779.2023	5743.2151	5762.7750	5782.3349	5801.8948	5815.9126	5737.2078	5641.3233	5465.8863	5242.4641	4991.3883	4740.3125	4489.2367	4313.9766	4222.8496	4131.7225	4040.5954	3774.7318	3383.3701	3260.1220	3250.0367	3220.1319	2979.5869	2739.0418	2553.9638	2520.6949	2487.4261	2364.8995	2132.9269	1900.9543	1798.1276	1795.1371	1792.1466	1789.1561	1746.5947	1698.2870	1649.9793	1601.6716	1574.9567	1549.1697	1523.3826	1497.5956	1481.9813	1480.5077	1479.0341	1477.5605	1476.0869	1470.3564	1462.9803	1455.6043	1448.2282	1440.8521	1466.1176	1499.0198	1531.9219	1564.8241	1597.7263	1583.4241	1537.7569	1492.0898	1446.4227	1400.7555	1412.6443	1450.3914	1488.1386	1525.8858	1563.6329	1570.5008	1577.1447	1583.7885	1590.4324	1580.1361	1529.4721	1478.8080	1428.1440	1377.4800	1364.8701	1413.0995	1461.3289	1509.5583	1557.7877	1587.8303	1532.2538	1476.6772	1421.1007	1365.5242	1315.8896	1377.2816	1438.6736	1500.0656	1561.4576	1622.8495	1615.6154	1595.4263	1575.2371	1555.0479	1534.8587	1513.3112	1491.2282	1469.1451	1447.0621	1424.9790	1417.6244	1445.6378	
2.4000	475.8166	475.8166	475.8166	475.8166	475.8166	475.8166	475.8166	475.8166	475.8166	475.8166	475.8166	475.8166	475.8166	475.8166	475.8166	475.8166	475.8166	475.8166	475.8166	475.8166	475.8166	475.8166	475.8166	475.8166	475.8166	475.8166	475.8166	475.8166	475.8166	475.8166	475.8166	475.8166	475.8166	475.8166	493.1691	561.3787	629.5882	697.7978	766.0073	834.2169	864.6940	871.8082	878.9225	886.0367	893.1510	900.2653	911.9105	926.5114	941.1124	955.7133	970.3143	977.2256	969.4989	961.7723	954.0456	946.3189	938.5922	940.6265	945.9074	951.1884	956.4693	961.7502	965.8616	954.7163	943.5709	932.4255	921.2801	910.1348	907.4200	915.6821	923.9443	932.2064	940.4685	948.7306	957.0608	965.4081	973.7555	982.1029	990.4503	997.9437	1000.9937	1004.0437	1007.0937	1010.1437	1013.1937	1009.7785	1000.4999	991.2212	981.9425	972.6638	963.3851	970.0867	977.9837	985.8808	993.7778	1001.6748	1006.2627	1000.9863	995.7100	990.4337	985.1573	979.8810	973.0076	965.1319	957.2562	949.3805	941.5048	933.6291	944.3055	955.3993	966.4931	977.5869	988.6807	998.5046	1005.8765	1013.2485	1020.6205	1027.9924	1035.3644	1038.2593	1039.2755	1040.2916	1041.3077	1042.3239	1043.1118	1040.7714	1038.4310	1036.0906	1033.7502	1031.4099	1023.3047	1007.5950	991.8854	976.1758	960.4662	950.6367	969.4344	988.2321	1007.0298	1025.8276	1044.6253	1060.6135	1061.6296	1062.6456	1063.6617	1064.6778	1065.6938	1066.7099	1067.7260	1068.7420	1069.7581	1070.7741	1071.7902	1072.8063	1073.8225	1074.8386	1075.8547	1076.8709	1078.0664	1079.8059	1081.5454	1083.2849	1085.0243	1086.7638	1082.2510	1073.7609	1065.2708	1056.7807	1048.2906	1039.8005	1047.1505	1057.3750	1067.5995	1077.8240	1088.0485	1095.1605	1096.1766	1097.1926	1098.2087	1099.2248	1100.2408	1101.2569	1102.2731	1103.2892	1104.3053	1105.3215	1106.3376	1107.3537	1108.3697	1109.3858	1110.4019	1111.4179	1112.4340	1113.4501	1114.4661	1115.4822	1116.4983	1117.5143	1118.5304	1119.5466	1120.5627	1121.5789	1122.5950	1123.6111	1124.6272	1125.6432	1126.6593	1127.6754	1128.6914	1129.7075	1130.7236	1131.7396	1132.7557	1133.7718	1134.7878	1120.9433	1105.0953	1089.2473	1073.3993	1057.5513	1054.7999	1092.4511	1130.1023	1167.7535	1205.4047	1243.0559	1230.3481	1185.1720	1139.9959	1094.8197	1049.6436	1004.4674	1027.2803	1052.1093	1076.9384	1101.7674	1125.5073	1132.4227	1139.3382	1146.2537	1153.1691	1160.0846	1163.2386	1164.2546	1165.2707	1166.2868	1167.3028	1168.3189	1169.3350	1170.3510	1171.3671	1172.3832	1173.3992	1174.4153	1175.4315	1176.4476	1177.4637	1178.4799	1179.4960	1180.5121	1181.5281	1182.5442	1183.5603	1184.5763	1186.8419	1201.6189	1216.3959	1231.1729	1245.9498	1260.7268	1272.9370	1282.0651	1291.1932	1300.3213	1309.4494	1316.5298	1286.5787	1256.6277	1226.6766	1196.7255	1166.7744	1171.2519	1179.2678	1187.2837	1195.2996	1203.3156	1207.9464	1208.9625	1209.9787	1210.9948	1212.0109	1213.0271	1214.0432	1215.0592	1216.0753	1217.0913	1218.1074	1219.1235	1220.1395	1221.1556	1222.1717	1223.1877	1224.2038	1225.2199	1226.2360	1227.2522	1228.2683	1229.2845	1230.3006	1231.3167	1232.3327	1233.3488	1234.3649	1235.3809	1236.3970	1237.4130	1238.4291	1239.4452	1240.4612	1241.4773	1242.4934	1243.5096	1244.5257	1245.5418	1246.5580	1247.4481	1243.8321	1240.2162	1236.6002	1232.9842	1229.3682	1229.1898	1234.3790	1239.5683	1244.7575	1249.9467	1255.1359	1275.0728	1299.8315	1324.5903	1349.3490	1374.1078	1380.6023	1350.1489	1319.6954	1289.2419	1258.7884	1236.1660	1243.6539	1251.1417	1258.6296	1266.1174	1273.6053	1296.6534	1324.0087	1351.3641	1378.7194	1406.0748	1451.1341	1599.4182	1747.7023	1895.9864	2044.2705	2192.5546	2493.7576	2814.7145	3135.6713	3456.6282	3861.2798	4293.5330	4725.7861	5202.5350	5685.2597	6595.2837	7382.7942	7253.6091	7124.4241	6995.2390	6866.0539	6736.8688	6607.6837	6478.4986	6349.3136	6220.1285	6070.2338	5914.5523	5770.8524	5628.4424	5486.0324	5319.3134	5112.9323	4906.5512	4700.1701	4517.8580	4386.6927	4255.5275	4124.3622	3839.4807	3349.1654	3152.4981	3196.8661	3241.2341	3004.3887	2747.0256	2493.8637	2273.3527	2052.8418	1885.9849	1900.3868	1914.7888	1929.1907	1895.3580	1820.0377	1744.7174	1669.3971	1619.2806	1584.3770	1549.4735	1514.5699	1479.6663	1478.3064	1481.9942	1485.6821	1489.3699	1493.0577	1500.7824	1510.5904	1520.3984	1530.2064	1540.0144	1537.9763	1525.6504	1513.3245	1500.9987	1488.6728	1478.6844	1487.1548	1495.6253	1504.0957	1512.5662	
