%H field first colomn	Temp row	Cp array	Corrected for demagnetization using the Anaroni demagnetization factor	 NaN means no data	 Interpolated from 6 field measurement
0.0000		229			230			231			232			233			234			235			236			237			238			239			240			241			242			243			244			245			246			247			248			249			250			251			252			253			254			255			256			257			258			259			260			261			262			263			264			265			266			267			268			269			270			271			272			273			274			275			276			277			278			279			280			281			282			283			284			285			286			287			288			289			290			291			292			293			294			295			296			297			298			299			300			301			302			303			304			305			306			307			308			309			310			311			312			313			314			315			316			317			
 0.000		427.8153		430.7716		430.6474		432.3012		433.7824		435.7414		438.1774		438.2453		440.1748		442.3743		444.4490		444.9045		447.4312		448.5535		450.2095		453.0113		455.4349		460.7523		462.6494		462.3749		466.0178		467.6960		469.3995		474.4110		478.4758		481.0103		485.1085		489.4426		493.0646		498.2656		503.4831		507.0092		516.2488		519.0799		525.1738		530.5410		539.4807		543.3238		553.7708		564.1220		574.7727		585.6773		598.7789		612.9190		629.0020		644.8509		665.3840		685.1663		708.2149		735.3987		763.2493		792.2223		818.0870		837.7580		842.9121		827.5134		789.9559		725.6992		644.1168		598.1012		572.8277		555.6181		543.7300		532.8870		523.2309		518.3538		511.2028		504.9802		500.8548		496.1234		492.3295		488.2060		484.4871		483.2627		480.4084		478.2952		477.4103		475.8353		471.2666		472.9451		470.3543		467.0816		466.7986		466.3361		466.3009		463.7081		463.2000		462.1761		461.1752		
 0.010		427.5027		429.9890		430.6211		432.0704		433.5065		435.2516		437.8358		437.8966		440.0409		441.9634		443.8850		444.8596		446.8801		448.2773		450.1567		452.7005		455.0979		460.3572		462.3296		462.0490		465.6311		467.7373		469.4519		474.0690		478.0659		480.8581		484.6753		489.2405		492.7209		497.7068		502.9335		506.5790		515.5602		518.4479		524.6148		530.2410		538.7661		543.1832		553.3397		563.4968		573.9977		584.9396		597.9276		611.9245		627.8692		643.6526		663.9738		683.6861		706.3901		733.3370		760.6134		789.4700		814.8760		834.5448		839.8268		825.1447		788.6903		726.7658		647.1224		601.5368		575.7458		557.9021		545.3633		534.0750		524.0403		519.0178		511.7119		505.3523		501.1276		496.3413		492.5351		488.3449		484.5615		483.2923		480.4958		478.3697		477.4180		475.9048		471.3274		472.8776		470.2860		467.0913		466.7674		466.3097		466.2257		463.7094		463.1652		462.1462		461.1618		
 0.020		427.1902		429.2064		430.5947		431.8396		433.2307		434.7619		437.4941		437.5478		439.9069		441.5526		443.3210		444.8147		446.3291		448.0010		450.1040		452.3896		454.7609		459.9620		462.0097		461.7231		465.2443		467.7786		469.5044		473.7269		477.6560		480.7060		484.2420		489.0384		492.3772		497.1481		502.3839		506.1489		514.8717		517.8160		524.0558		529.9410		538.0515		543.0425		552.9085		562.8716		573.2227		584.2018		597.0762		610.9300		626.7363		642.4543		662.5636		682.2058		704.5653		731.2752		757.9774		786.7177		811.6650		831.3316		836.7415		822.7760		787.4247		727.8325		650.1280		604.9724		578.6639		560.1862		546.9967		535.2630		524.8498		519.6817		512.2210		505.7245		501.4004		496.5591		492.7408		488.4839		484.6360		483.3220		480.5831		478.4442		477.4257		475.9742		471.3882		472.8101		470.2177		467.1011		466.7361		466.2833		466.1506		463.7107		463.1305		462.1163		461.1484		
 0.030		426.8153		428.4271		430.4310		431.6394		432.9195		434.3136		437.1152		437.2234		439.5309		441.2118		442.8300		444.7301		445.8317		447.8054		449.9073		452.0896		454.3576		459.5689		461.6423		461.4269		464.9890		467.7586		469.6020		473.3484		477.2471		480.5386		483.8027		488.8304		492.0273		496.5893		501.8371		505.7187		514.1870		517.1821		523.4968		529.6409		537.3369		542.9019		552.4773		562.2463		572.4476		583.4641		596.2248		609.9355		625.6035		641.2560		661.1534		680.7255		702.7405		729.2135		755.3415		783.9654		808.4539		828.1183		833.6562		820.4073		786.1592		728.8991		653.1336		608.4079		581.5820		562.4702		548.6300		536.4510		525.6593		520.3456		512.7300		506.0966		501.6732		496.7769		492.9464		488.6228		484.7104		483.3516		480.6704		478.5187		477.4334		476.0437		471.4490		472.7426		470.1495		467.1109		466.7049		466.2569		466.0755		463.7121		463.0958		462.0864		461.1350		
 0.040		426.3368		427.6502		430.0541		431.4625		432.5803		433.8903		436.6825		436.9510		439.0252		441.0121		442.5024		444.5785		445.3675		447.6832		449.6034		451.7972		453.8977		459.1814		461.1543		461.2701		464.8677		467.6700		469.7643		472.9070		476.8489		480.1668		483.3464		488.5957		491.6544		496.0436		501.3099		505.3318		513.5368		516.4673		522.9779		529.2273		536.6574		542.7582		552.0819		561.6645		571.6585		582.7824		595.3734		608.9409		624.4706		640.0577		659.7432		679.2452		700.9157		727.1517		752.7055		781.2131		805.2429		824.9051		830.5709		818.0386		784.8936		729.9657		656.1391		611.8435		584.5001		564.7543		550.2633		537.6390		526.4688		521.0095		513.2391		506.4687		501.9460		496.9948		493.1521		488.7618		484.7848		483.3813		480.7578		478.5933		477.4410		476.1132		471.5099		472.6750		470.0812		467.1206		466.6737		466.2305		466.0003		463.7134		463.0611		462.0565		461.1216		
 0.050		425.8657		426.8733		429.6771		431.2856		432.2410		433.4670		436.2497		436.6787		438.5195		440.8124		442.1748		444.4268		444.9034		447.5609		449.2995		451.5049		453.4378		458.7939		460.6663		461.1134		464.7465		467.5815		469.9266		472.4657		476.4508		479.7950		482.8901		488.3610		491.2815		495.5006		500.7828		504.9575		512.8865		515.7526		522.4625		528.7983		536.0335		542.6071		551.7482		561.2952		570.8424		582.1866		594.6161		607.9890		623.3659		638.7695		658.3426		677.7298		699.0909		725.0427		750.0696		778.4608		802.0319		821.6918		827.4856		815.6699		783.6280		731.0323		659.1447		615.2790		587.4182		567.0384		551.8967		538.8270		527.2782		521.6735		513.7481		506.8409		502.2188		497.2126		493.3578		488.9007		484.8592		483.4109		480.8451		478.6678		477.4487		476.1827		471.5707		472.6075		470.0129		467.1304		466.6424		466.2041		465.9252		463.7147		463.0263		462.0266		461.1082		
 0.060		425.8806		426.8836		429.6458		431.2803		432.2975		433.4582		436.1643		436.6655		438.4903		440.7648		442.1819		444.4313		444.8646		447.6028		449.3104		451.4902		453.3623		458.6893		460.4958		461.0766		464.7250		467.5561		469.9884		472.2499		476.2015		479.5293		482.5408		488.1597		490.9425		494.9728		500.2556		504.5833		512.2362		515.0379		521.9472		528.3693		535.4097		542.4561		551.4145		560.9258		570.0263		581.5908		593.8799		607.0631		622.2827		637.4722		656.9684		676.1786		697.3067		722.7938		747.4737		775.6657		798.8208		818.4786		824.4003		813.3012		782.3624		732.0990		662.1503		618.7146		590.3363		569.3224		553.5300		540.0150		528.0877		522.3374		514.2572		507.2130		502.4916		497.4305		493.5634		489.0397		484.9337		483.4406		480.9325		478.7423		477.4564		476.2521		471.6315		472.5400		469.9447		467.1402		466.6112		466.1776		465.8500		463.7161		462.9916		461.9967		461.0948		
 0.070		425.8954		426.9059		429.6346		431.2930		432.3980		433.4954		436.1174		436.6811		438.5141		440.7341		442.2222		444.4512		444.8678		447.6609		449.3665		451.5304		453.3922		458.6817		460.4582		461.1003		464.7634		467.5755		469.9628		472.2692		476.1670		479.4696		482.4967		488.1112		490.8781		494.9426		500.1508		504.4676		512.0013		514.7405		521.6260		528.0338		534.8760		542.3036		551.0809		560.5564		569.2102		580.9950		593.1438		606.1372		621.1996		636.1749		655.5941		674.6273		695.5274		720.5449		744.9261		772.8596		795.6396		815.2503		821.4302		810.9770		781.0968		733.1656		665.1559		622.1502		593.2544		571.6065		555.1634		541.2029		528.8972		523.0013		514.7663		507.5852		502.7644		497.6483		493.7691		489.1786		485.0081		483.4703		481.0198		478.8168		477.4641		476.3216		471.6923		472.4725		469.8764		467.1500		466.5800		466.1512		465.7749		463.7174		462.9569		461.9668		461.0814		
 0.080		425.9103		426.9283		429.6234		431.3057		432.4984		433.5325		436.0705		436.6967		438.5378		440.7033		442.2624		444.4711		444.8711		447.7191		449.4225		451.5707		453.4222		458.6741		460.4206		461.1240		464.8018		467.5950		469.9372		472.2885		476.1324		479.4100		482.4526		488.0626		490.8137		494.9125		500.0660		504.3875		511.8705		514.6362		521.4879		527.8451		534.6650		542.1307		550.8290		560.2444		568.6440		580.4610		592.4465		605.2113		620.1164		634.8776		654.2198		673.0761		693.7481		718.2961		742.3786		770.0534		792.4758		811.9688		818.5412		808.7708		779.9815		734.2322		668.1615		625.5857		596.1725		573.8905		556.7967		542.3909		529.7067		523.6653		515.2753		507.9573		503.0373		497.8662		493.9747		489.3176		485.0825		483.4999		481.1071		478.8913		477.4718		476.3911		471.7531		472.4049		469.8081		467.1597		466.5488		466.1248		465.6998		463.7187		462.9221		461.9369		461.0680		
 0.090		425.9252		426.9506		429.6122		431.3184		432.5989		433.5697		436.0237		436.7123		438.5616		440.6726		442.3027		444.4910		444.8743		447.7772		449.4786		451.6110		453.4522		458.6665		460.3830		461.1478		464.8402		467.6145		469.9116		472.3078		476.0978		479.3504		482.4084		488.0141		490.7493		494.8824		499.9812		504.3073		511.7398		514.5319		521.3498		527.6565		534.4539		541.9578		550.5852		559.9497		568.2786		580.0373		592.0146		604.5597		619.3135		633.7947		652.8455		671.5249		691.9688		716.0472		739.8311		767.2473		789.3119		808.6874		815.6521		806.5645		778.9685		735.0978		671.3377		628.9795		599.0772		576.1746		558.4300		543.5789		530.5161		524.3292		515.7844		508.3294		503.3101		498.0840		494.1804		489.4565		485.1569		483.5296		481.1945		478.9658		477.4794		476.4606		471.8139		472.3374		469.7399		467.1695		466.5175		466.0984		465.6246		463.7201		462.8874		461.9071		461.0546		
 0.100		425.9401		426.9730		429.6011		431.3311		432.6993		433.6069		435.9768		436.7279		438.5854		440.6418		442.3430		444.5109		444.8776		447.8354		449.5346		451.6513		453.4821		458.6589		460.3454		461.1715		464.8786		467.6340		469.8860		472.3271		476.0632		479.2908		482.3643		487.9655		490.6849		494.8523		499.8963		504.2271		511.6091		514.4276		521.2117		527.4678		534.2428		541.7849		550.3414		559.6549		567.9133		579.6136		591.5827		603.9596		618.7148		633.2038		652.1402		670.4258		690.3894		713.7983		737.2835		764.4411		786.1480		805.4059		812.7631		804.3583		777.9555		735.5235		674.5999		632.2571		601.8367		578.3704		560.0289		544.7669		531.3256		524.9931		516.2935		508.7016		503.5829		498.3019		494.3861		489.5955		485.2314		483.5592		481.2818		479.0403		477.4871		476.5301		471.8748		472.2699		469.6716		467.1793		466.4863		466.0720		465.5495		463.7214		462.8527		461.8772		461.0412		
 0.110		425.9550		426.9953		429.5899		431.3438		432.7998		433.6441		435.9300		436.7434		438.6091		440.6111		442.3832		444.5307		444.8808		447.8935		449.5907		451.6915		453.5121		458.6513		460.3078		461.1952		464.9170		467.6534		469.8604		472.3464		476.0287		479.2312		482.3202		487.9170		490.6205		494.8221		499.8115		504.1470		511.4783		514.3234		521.0736		527.2791		534.0317		541.6119		550.0976		559.3602		567.5480		579.1899		591.1508		603.3595		618.1162		632.6130		651.4464		669.5878		689.4891		712.4549		735.1189		761.6350		782.9842		802.1245		809.8740		802.1521		776.9425		735.9493		677.8622		635.5347		604.5963		580.4734		561.5449		545.8020		532.0787		525.6547		516.8025		509.0727		503.8557		498.5239		494.5917		489.7344		485.3058		483.5889		481.3691		479.1149		477.4948		476.5995		471.9356		472.2024		469.6033		467.1890		466.4551		466.0456		465.4744		463.7227		462.8180		461.8473		461.0278		
 0.120		425.9698		427.0177		429.5787		431.3565		432.9002		433.6813		435.8831		436.7590		438.6329		440.5804		442.4235		444.5506		444.8840		447.9516		449.6467		451.7318		453.5420		458.6437		460.2702		461.2190		464.9554		467.6729		469.8348		472.3657		475.9941		479.1716		482.2761		487.8684		490.5561		494.7920		499.7267		504.0668		511.3476		514.2191		520.9355		527.0904		533.8206		541.4390		549.8538		559.0654		567.1826		578.7662		590.7190		602.7594		617.5176		632.0221		650.7527		668.7499		688.5887		711.3875		733.9302		759.8992		779.8845		798.8430		806.9850		799.9459		775.9296		736.3751		681.1244		638.8122		607.3558		582.5764		563.0610		546.8297		532.7956		526.3157		517.3313		509.3670		504.1285		498.7625		494.7829		489.8734		485.3802		483.6185		481.4341		479.1894		477.5177		476.6690		471.9965		472.1349		469.5351		467.1988		466.4437		466.0192		465.3992		463.7241		462.7832		461.8255		460.9932		
 0.130		425.9847		427.0400		429.5675		431.3692		433.0006		433.7185		435.8363		436.7746		438.6567		440.5496		442.4637		444.5705		444.8873		448.0098		449.7028		451.7721		453.5720		458.6360		460.2326		461.2427		464.9938		467.6924		469.8092		472.3850		475.9595		479.1120		482.2320		487.8199		490.4917		494.7619		499.6418		503.9866		511.2168		514.1148		520.7974		526.9017		533.6095		541.2661		549.6100		558.7707		566.8173		578.3426		590.2871		602.1593		616.9190		631.4312		650.0590		667.9120		687.6884		710.3201		732.7416		758.5880		778.5611		796.1426		804.0959		797.7397		774.9166		736.8009		684.3867		642.0898		610.1153		584.6794		564.5770		547.8574		533.5125		526.9767		517.8915		509.6612		504.4258		499.0010		494.9737		490.0317		485.4600		483.6704		481.4980		479.2740		477.5525		476.7163		472.0599		472.0803		469.4670		467.2049		466.4536		465.9985		465.3389		463.7223		462.7523		461.8131		460.9492		
 0.140		425.9996		427.0624		429.5564		431.3819		433.1011		433.7556		435.7894		436.7902		438.6804		440.5189		442.5040		444.5904		444.8905		448.0679		449.7588		451.8123		453.6020		458.6284		460.1950		461.2664		465.0322		467.7118		469.7836		472.4043		475.9250		479.0523		482.1879		487.7713		490.4273		494.7318		499.5570		503.9065		511.0861		514.0105		520.6593		526.7130		533.3984		541.0932		549.3662		558.4760		566.4520		577.9189		589.8552		601.5592		616.3203		630.8404		649.3653		667.0740		686.7881		709.2527		731.5529		757.2768		777.2378		794.8377		802.0158		795.5334		773.9036		737.2267		687.6489		645.3674		612.8748		586.7824		566.0930		548.8850		534.2294		527.6377		518.4517		509.9555		504.7269		499.2396		495.1645		490.1942		485.5429		483.7378		481.5619		479.3670		477.5874		476.7443		472.1232		472.0542		469.3991		467.1959		466.4636		465.9882		465.3044		463.7043		462.7335		461.8007		460.9052		
 0.150		426.0145		427.0847		429.5452		431.3946		433.2015		433.7928		435.7426		436.8058		438.7042		440.4881		442.5442		444.6103		444.8937		448.1261		449.8148		451.8526		453.6319		458.6208		460.1574		461.2902		465.0706		467.7313		469.7580		472.4236		475.8904		478.9927		482.1438		487.7228		490.3629		494.7016		499.4722		503.8263		510.9553		513.9062		520.5212		526.5244		533.1873		540.9203		549.1224		558.1812		566.0866		577.4952		589.4233		600.9591		615.7217		630.2495		648.6716		666.2361		685.8878		708.1853		730.3642		755.9657		775.9144		793.5328		800.8778		794.2023		772.8906		737.6525		690.9112		648.6449		615.6343		588.8854		567.6090		549.9127		534.9463		528.2987		519.0119		510.2497		505.0281		499.4781		495.3553		490.3568		485.6257		483.8053		481.6258		479.4601		477.6222		476.7723		472.1865		472.0281		469.3312		467.1870		466.4735		465.9780		465.2699		463.6863		462.7148		461.7883		460.8611		
 0.160		426.0294		427.1075		429.5340		431.4074		433.3020		433.8300		435.6957		436.8240		438.7405		440.4723		442.5845		444.6402		444.9084		448.1842		449.8792		451.8927		453.6637		458.6117		460.1198		461.3100		465.1090		467.7508		469.7324		472.4429		475.8558		478.9331		482.0996		487.6742		490.2985		494.6715		499.3873		503.7461		510.8246		513.8020		520.3832		526.3357		532.9763		540.7474		548.8786		557.8865		565.7213		577.0715		588.9914		600.3590		615.1231		629.6587		647.9778		665.3982		684.9874		707.1179		729.1755		754.6545		774.5910		792.2278		799.7399		793.5753		772.5120		738.0783		694.1734		651.9225		618.3938		590.9884		569.1250		550.9403		535.6632		528.9597		519.5721		510.5440		505.3293		499.7167		495.5461		490.5193		485.7085		483.8727		481.6897		479.5532		477.6571		476.8003		472.2499		472.0020		469.2634		467.1780		466.4835		465.9677		465.2353		463.6684		462.6961		461.7759		460.8171		
 0.170		426.0610		427.1346		429.5270		431.4260		433.3757		433.8686		435.7077		436.8434		438.7828		440.4736		442.6088		444.6851		444.9352		448.2408		449.9521		451.9325		453.7000		458.5999		460.0789		461.3246		465.1367		467.7702		469.7082		472.4603		475.8251		478.8735		482.0555		487.6257		490.2340		494.6160		499.3025		503.6627		510.6936		513.6977		520.2451		526.1470		532.7652		540.5745		548.6348		557.5917		565.3559		576.6478		588.5595		599.7589		614.5245		629.0678		647.2841		664.5603		684.0871		706.0506		727.9868		753.3433		773.2677		790.9229		798.6019		792.9482		772.5593		738.7061		697.4357		655.2001		621.1533		593.0914		570.6410		551.9680		536.3801		529.6207		520.1323		510.8382		505.6305		499.9552		495.7369		490.6818		485.7914		483.9402		481.7535		479.6463		477.6919		476.8283		472.3132		471.9759		469.1955		467.1690		466.4935		465.9575		465.2008		463.6504		462.6774		461.7635		460.7731		
 0.180		426.1016		427.1616		429.5205		431.4459		433.4357		433.9082		435.7396		436.8628		438.8252		440.4749		442.6056		444.7300		444.9619		448.2969		450.0250		451.9723		453.7362		458.5881		460.0254		461.3391		465.1645		467.7359		469.7032		472.4595		475.7955		478.8092		482.0141		487.5699		490.1685		494.5250		499.2160		503.5689		510.5576		513.5885		520.1070		525.9611		532.5762		540.3985		548.3843		557.2960		564.9906		576.2241		588.1276		599.1588		613.9258		628.4769		646.5904		663.7223		683.1868		704.9832		726.7982		752.0322		771.9443		789.6180		797.4639		792.3211		772.6065		739.4916		699.6615		658.4777		623.9129		595.1943		572.1570		552.9957		537.0970		530.2817		520.6925		511.1325		505.9316		500.1938		495.9277		490.8444		485.8742		484.0076		481.8174		479.7394		477.7267		476.8562		472.3766		471.9499		469.1276		467.1601		466.5034		465.9472		465.1663		463.6324		462.6586		461.7511		460.7291		
 0.190		426.1421		427.1887		429.5140		431.4657		433.4957		433.9478		435.7715		436.8822		438.8675		440.4761		442.6023		444.7749		444.9887		448.3530		450.0978		452.0121		453.7724		458.5763		459.9718		461.3536		465.1922		467.6902		469.6981		472.4587		475.7659		478.7425		481.9757		487.5066		490.1010		494.4339		499.1233		503.4750		510.4217		513.4792		519.9520		525.7791		532.4075		540.2195		548.1135		556.9922		564.6154		575.7911		587.7205		598.5637		613.3272		627.8861		645.8967		662.8844		682.2865		703.9158		725.6095		750.7210		770.6209		788.3130		796.3259		791.6940		772.6538		740.2771		701.1416		660.8118		626.6724		597.2973		573.6730		554.0233		537.8140		530.9427		521.2528		511.4267		506.2328		500.4323		496.1185		491.0069		485.9571		484.0751		481.8813		479.8324		477.7616		476.8842		472.4399		471.9238		469.0597		467.1511		466.5134		465.9370		465.1318		463.6145		462.6399		461.7387		460.6850		
 0.200		426.1827		427.2158		429.5075		431.4856		433.5557		433.9875		435.8034		436.9017		438.9099		440.4774		442.5991		444.8198		445.0155		448.4092		450.1707		452.0519		453.8086		458.5645		459.9183		461.3682		465.2199		467.6446		469.6931		472.4578		475.7362		478.6758		481.9373		487.4432		490.0336		494.3428		499.0305		503.3812		510.2857		513.3698		519.7803		525.5971		532.2388		540.0405		547.8428		556.6884		564.2337		575.3470		587.3313		598.0040		612.7286		627.2868		645.2030		662.0465		681.3861		702.8484		724.4208		749.4098		769.2975		787.0081		795.1880		791.0669		772.7011		741.0626		702.6217		662.6071		628.7459		599.4003		575.1891		555.0510		538.5309		531.6037		521.8130		511.7210		506.5340		500.6709		496.3094		491.1695		486.0399		484.1425		481.9452		479.9255		477.7964		476.9122		472.5032		471.8977		468.9918		467.1422		466.5234		465.9267		465.0973		463.5965		462.6212		461.7263		460.6410		
 0.210		426.2233		427.2429		429.5010		431.5055		433.6157		434.0271		435.8354		436.9211		438.9522		440.4787		442.5958		444.8647		445.0423		448.4653		450.2436		452.0917		453.8448		458.5527		459.8647		461.3827		465.2477		467.5990		469.6881		472.4570		475.7066		478.6091		481.8988		487.3799		489.9661		494.2517		498.9378		503.2873		510.1498		513.2605		519.6086		525.4151		532.0701		539.8615		547.5721		556.3846		563.8519		574.9029		586.9422		597.4444		612.1297		626.6608		644.4899		661.2086		680.4827		701.7810		723.2321		748.0987		767.9742		785.7032		794.0500		790.4398		772.7484		741.8481		704.1017		664.4023		630.5581		601.1036		576.7065		556.0787		539.2478		532.2647		522.3732		512.0153		506.8352		500.9094		496.5002		491.3320		486.1227		484.2100		482.0091		480.0186		477.8312		476.9402		472.5666		471.8716		468.9239		467.1332		466.5333		465.9165		465.0628		463.5786		462.6025		461.7139		460.5970		
 0.220		426.2638		427.2699		429.4945		431.5254		433.6756		434.0667		435.8673		436.9405		438.9946		440.4799		442.5926		444.9096		445.0691		448.5214		450.3165		452.1315		453.8810		458.5408		459.8112		461.3973		465.2754		467.5533		469.6830		472.4562		475.6769		478.5424		481.8604		487.3166		489.8986		494.1607		498.8451		503.1935		510.0138		513.1512		519.4370		525.2331		531.9014		539.6825		547.3014		556.0808		563.4701		574.4588		586.5530		596.8848		611.5305		626.0348		643.7756		660.3827		679.5520		700.7292		722.0435		746.7875		766.6508		784.3983		792.9120		789.8127		772.7957		742.6336		705.5818		666.1976		632.3702		602.7907		578.2270		557.4099		540.1534		532.9257		522.9334		512.3095		507.1363		501.1480		496.6910		491.4946		486.2056		484.2774		482.0730		480.1117		477.8661		476.9681		472.6299		471.8455		468.8561		467.1243		466.5433		465.9062		465.0283		463.5606		462.5838		461.7015		460.5530		
 0.230		426.3044		427.2970		429.4880		431.5453		433.7356		434.1063		435.8992		436.9599		439.0369		440.4812		442.5893		444.9545		445.0959		448.5775		450.3893		452.1713		453.9172		458.5290		459.7577		461.4118		465.3031		467.5077		469.6780		472.4553		475.6473		478.4757		481.8219		487.2533		489.8312		494.0696		498.7523		503.0996		509.8779		513.0418		519.2653		525.0511		531.7327		539.5035		547.0307		555.7770		563.0883		574.0146		586.1638		596.3251		610.9314		625.4089		643.0614		659.5632		678.6213		699.6801		720.8548		745.4251		765.3274		783.0933		791.7740		789.1856		772.8430		743.4191		707.0619		667.9928		634.1824		604.4778		579.7475		558.8357		541.5019		533.8885		523.6137		512.7290		507.4609		501.3865		496.8818		491.6571		486.2884		484.3449		482.1369		480.2048		477.9009		476.9961		472.6933		471.8195		468.7882		467.1153		466.5532		465.8960		464.9938		463.5426		462.5650		461.6891		460.5089		
 0.240		426.3449		427.3241		429.4815		431.5652		433.7956		434.1460		435.9311		436.9793		439.0793		440.4825		442.5861		444.9994		445.1227		448.6336		450.4622		452.2112		453.9534		458.5172		459.7041		461.4264		465.3308		467.4621		469.6729		472.4545		475.6176		478.4090		481.7835		487.1899		489.7637		493.9785		498.6596		503.0058		509.7419		512.9325		519.0936		524.8691		531.5640		539.3245		546.7600		555.4732		562.7066		573.5705		585.7746		595.7655		610.3323		624.7829		642.3471		658.7436		677.6906		698.6310		719.6754		744.0449		764.0041		781.7945		790.6360		788.5585		772.8902		744.2046		708.5420		669.7880		635.9946		606.1649		581.2680		560.2615		542.8504		534.8842		524.3818		513.4291		508.0439		501.8069		497.1794		491.9092		486.4922		484.4736		482.2354		480.2975		477.9441		477.0269		472.7573		471.7955		468.7203		467.1064		466.5632		465.8857		464.9593		463.5247		462.5463		461.6767		460.4649		
 0.250		426.3855		427.3512		429.4750		431.5850		433.8556		434.1856		435.9630		436.9988		439.1216		440.4837		442.5828		445.0443		445.1494		448.6897		450.5351		452.2510		453.9896		458.5054		459.6506		461.4409		465.3586		467.4164		469.6679		472.4537		475.5880		478.3423		481.7451		487.1266		489.6963		493.8874		498.5669		502.9119		509.6060		512.8232		518.9219		524.6871		531.3953		539.1455		546.4893		555.1694		562.3248		573.1264		585.3855		595.2058		609.7331		624.1569		641.6328		657.9240		676.7600		697.5819		718.4967		742.6648		762.7009		780.5067		789.5284		787.9314		772.9375		744.9901		710.0220		671.5833		637.8067		607.8520		582.7885		561.6873		544.1989		535.8799		525.1499		514.1293		508.6269		502.2477		497.5126		492.2187		486.8198		484.6927		482.4114		480.3891		478.0285		477.0794		472.8315		471.9160		468.8009		467.1921		466.5988		465.9303		464.9608		463.5571		462.5622		461.7106		460.4672		
 0.260		426.4261		427.3783		429.4686		431.6049		433.9156		434.2252		435.9949		437.0182		439.1640		440.4850		442.5796		445.0892		445.1762		448.7459		450.6080		452.2908		454.0259		458.4936		459.5970		461.4555		465.3863		467.3708		469.6628		472.4528		475.5583		478.2756		481.7066		487.0633		489.6288		493.7964		498.4741		502.8181		509.4700		512.7138		518.7502		524.5051		531.2266		538.9664		546.2185		554.8656		561.9430		572.6823		584.9963		594.6462		609.1340		623.5309		640.9185		657.1044		675.8293		696.5328		717.3179		741.2846		761.4047		779.2189		788.4694		787.4469		772.9848		745.7756		711.5021		673.3785		639.6189		609.5391		584.3090		563.1131		545.5473		536.8756		525.9180		514.8294		509.2098		502.6884		497.8459		492.5282		487.1474		484.9118		482.5873		480.4807		478.1129		477.1319		472.9058		472.0364		468.8855		467.2844		466.6372		465.9831		464.9692		463.6009		462.5871		461.7579		460.4846		
 0.270		426.4056		427.3487		429.4330		431.5708		433.8861		434.1885		435.9865		436.9955		439.1635		440.4585		442.5647		445.1085		445.1873		448.7878		450.6789		452.3306		454.0621		458.4818		459.5435		461.4700		465.4140		467.3251		469.6578		472.4520		475.5287		478.2089		481.6682		486.9999		489.5613		493.7053		498.3814		502.7242		509.3340		512.6045		518.5785		524.3231		531.0579		538.7874		545.9478		554.5618		561.5612		572.2381		584.6071		594.0865		608.5348		622.9049		640.2043		656.2848		674.8986		695.4838		716.1392		739.9044		760.1084		777.9310		787.4103		787.0173		773.0633		746.5610		712.9822		675.1737		641.4310		611.2262		585.8295		564.5388		546.8958		537.8713		526.6861		515.5295		509.7928		503.1292		498.1792		492.8378		487.4750		485.1309		482.7633		480.5723		478.1973		477.1844		472.9801		472.1568		468.9700		467.3767		466.6757		466.0360		464.9776		463.6447		462.6120		461.8053		460.5020		
 0.280		426.3674		427.2977		429.3835		431.5057		433.7905		434.0826		435.9315		436.9121		439.0853		440.3672		442.5138		445.0151		445.0930		448.6539		450.5523		452.2077		453.9879		458.3847		459.4762		461.3479		465.3366		467.2433		469.5955		472.3794		475.4595		478.1328		481.6276		486.9366		489.4939		493.6142		498.2887		502.6304		509.1981		512.4952		518.4068		524.1410		530.8893		538.6084		545.6771		554.2580		561.1795		571.7940		584.2179		593.5269		607.9357		622.2790		639.4900		655.4652		673.9680		694.4347		714.9605		738.5243		758.8122		776.6432		786.3512		786.5878		773.2790		747.4785		714.4622		676.9690		643.2432		612.9134		587.3500		565.9646		548.2443		538.8670		527.4541		516.2297		510.3758		503.5699		498.5125		493.1473		487.8026		485.3500		482.9392		480.6639		478.2817		477.2369		473.0544		472.2773		469.0545		467.4690		466.7141		466.0888		464.9860		463.6886		462.6369		461.8526		460.5194		
 0.290		426.3292		427.2467		429.3340		431.4405		433.6948		433.9768		435.8765		436.8288		439.0071		440.2759		442.4629		444.9217		444.9987		448.5201		450.4257		452.0743		453.8972		458.2662		459.4037		461.1553		465.1860		467.1279		469.4632		472.1870		475.2742		477.9955		481.4366		486.7802		489.2784		493.4713		498.1308		502.4639		509.0328		512.3655		518.2337		523.9590		530.7206		538.4294		545.4064		553.9542		560.7977		571.3499		583.8287		592.9672		607.3366		621.6530		638.7757		654.6456		673.0373		693.3856		713.7818		737.1441		757.5160		775.3554		785.2922		786.1582		773.4948		748.4153		715.9423		678.7642		645.0553		614.6005		588.8705		567.3904		549.5928		539.8627		528.2222		516.9298		510.9587		504.0107		498.8458		493.4568		488.1302		485.5691		483.1152		480.7555		478.3660		477.2894		473.1287		472.3977		469.1390		467.5613		466.7526		466.1416		464.9944		463.7324		462.6617		461.9000		460.5368		
 0.300		426.2910		427.1957		429.2844		431.3754		433.5991		433.8709		435.8216		436.7454		438.9288		440.1845		442.4120		444.8283		444.9044		448.3862		450.2991		451.9409		453.8065		458.1478		459.3313		460.9626		465.0354		467.0125		469.3308		471.9945		475.0889		477.8582		481.2456		486.6128		489.0197		493.3010		497.9162		502.1947		508.7974		512.1359		517.9870		523.6366		530.4645		538.1361		545.1148		553.6425		560.4159		570.9058		583.4396		592.4076		606.7374		621.0270		638.0614		653.8260		672.1066		692.3365		712.6030		735.7640		756.2198		774.0675		784.2331		785.7287		773.7106		749.3522		717.3163		680.5595		646.8675		616.2876		590.3910		568.8162		550.9412		540.8584		528.9903		517.6300		511.5417		504.4515		499.1790		493.7664		488.4578		485.7882		483.2911		480.8471		478.4504		477.3419		473.2029		472.5181		469.2235		467.6536		466.7910		466.1944		465.0028		463.7763		462.6866		461.9474		460.5542		
 0.310		426.2528		427.1447		429.2349		431.3102		433.5035		433.7651		435.7666		436.6620		438.8506		440.0932		442.3611		444.7349		444.8101		448.2524		450.1725		451.8076		453.7157		458.0293		459.2589		460.7700		464.8848		466.8972		469.1985		471.8020		474.9037		477.7209		481.0546		486.4454		488.7610		493.1307		497.7015		501.9256		508.5619		511.9064		517.7403		523.2874		530.1651		537.7160		544.7679		553.2025		560.0622		570.4921		583.0281		591.8525		606.1383		620.4010		637.3472		653.0064		671.1760		691.2874		711.4243		734.3838		754.9236		772.7797		783.1740		785.2991		773.9264		750.2891		718.6421		682.2979		648.6588		617.9713		591.9115		570.2420		552.2897		541.8541		529.7584		518.3301		512.1247		504.8922		499.5123		494.0759		488.7854		486.0073		483.4671		480.9387		478.5348		477.3944		473.2772		472.6386		469.3080		467.7459		466.8294		466.2472		465.0112		463.8201		462.7115		461.9947		460.5716		
 0.320		426.2146		427.0937		429.1854		431.2450		433.4078		433.6592		435.7116		436.5786		438.7723		440.0019		442.3102		444.6416		444.7159		448.1185		450.0459		451.6742		453.6250		457.9109		459.1865		460.5773		464.7342		466.7818		469.0661		471.6095		474.7184		477.5836		480.8635		486.2780		488.5023		492.9605		497.4869		501.6564		508.3264		511.6768		517.4935		522.9381		529.8658		537.2959		544.4210		552.7625		559.7147		570.1006		582.5699		591.3854		605.6235		619.7663		636.6316		652.1868		670.2453		690.2383		710.2456		733.0036		753.6273		771.4919		782.1150		784.8695		774.1421		751.2260		719.9679		684.0290		650.4425		619.6445		593.4320		571.6678		553.6382		542.8498		530.5265		519.0303		512.7076		505.3330		499.8456		494.3855		489.1130		486.2264		483.6430		481.0303		478.6192		477.4469		473.3515		472.7590		469.3926		467.8382		466.8679		466.3000		465.0196		463.8640		462.7364		462.0421		460.5890		
 0.330		426.1764		427.0426		429.1358		431.1799		433.3122		433.5533		435.6567		436.4953		438.6941		439.9106		442.2593		444.5482		444.6216		447.9847		449.9192		451.5408		453.5343		457.7924		459.1141		460.3847		464.5836		466.6664		468.9338		471.4170		474.5331		477.4463		480.6725		486.1105		488.2436		492.7902		497.2722		501.3872		508.0909		511.4472		517.2468		522.5888		529.5664		536.8757		544.0741		552.3225		559.3672		569.7091		582.1117		590.9183		605.1396		619.1172		635.8870		651.4037		669.3228		689.1892		709.0668		731.6235		752.3311		770.2041		781.0559		784.4400		774.3579		752.1628		721.2937		685.7602		652.2263		621.3176		594.9602		573.1337		554.9835		543.8305		531.2946		519.7304		513.2906		505.7738		500.1789		494.6950		489.4406		486.4456		483.8190		481.1219		478.7036		477.4994		473.4258		472.8794		469.4771		467.9305		466.9063		466.3528		465.0280		463.9078		462.7612		462.0894		460.6064		
 0.340		426.1382		426.9916		429.0863		431.1147		433.2165		433.4475		435.6017		436.4119		438.6159		439.8192		442.2085		444.4548		444.5273		447.8509		449.7926		451.4075		453.4436		457.6740		459.0417		460.1920		464.4331		466.5510		468.8014		471.2246		474.3478		477.3090		480.4815		485.9431		487.9849		492.6199		497.0576		501.1181		507.8554		511.2177		517.0001		522.2395		529.2671		536.4556		543.7272		551.8825		559.0198		569.3175		581.6535		590.4512		604.6557		618.4681		635.1424		650.6409		668.4338		688.2341		707.9090		730.2433		751.0349		768.9162		779.9969		784.0104		774.5737		753.0997		722.6195		687.4913		654.0100		622.9907		596.5107		574.6132		556.3033		544.7513		532.0360		520.4224		513.8736		506.2145		500.5121		495.0045		489.7682		486.6647		483.9949		481.2135		478.7879		477.5519		473.5000		472.9999		469.5616		468.0228		466.9448		466.4057		465.0364		463.9517		462.7861		462.1368		460.6238		
 0.350		426.1000		426.9406		429.0368		431.0496		433.1208		433.3416		435.5467		436.3285		438.5376		439.7279		442.1576		444.3614		444.4330		447.7170		449.6660		451.2741		453.3528		457.5555		458.9692		459.9994		464.2825		466.4356		468.6691		471.0321		474.1626		477.1717		480.2905		485.7757		487.7262		492.4496		496.8429		500.8489		507.6199		510.9881		516.7534		521.8902		528.9677		536.0355		543.3803		551.4425		558.6723		568.9260		581.1954		589.9840		604.1718		617.8190		634.3977		649.8780		667.5447		687.3153		706.8251		729.0018		749.7387		767.6284		778.9378		783.5809		774.7894		754.0366		723.9453		689.2225		655.7938		624.6639		598.0611		576.0927		557.6231		545.6721		532.7653		521.1054		514.4270		506.6553		500.8454		495.3141		490.0810		486.8899		484.1709		481.3051		478.8723		477.6044		473.5743		473.1203		469.6461		468.1151		466.9832		466.4585		465.0448		463.9955		462.8110		462.1842		460.6413		
 0.360		426.0618		426.8896		428.9872		430.9844		433.0252		433.2357		435.4917		436.2452		438.4594		439.6366		442.1067		444.2680		444.3387		447.5832		449.5394		451.1408		453.2621		457.4371		458.8968		459.8067		464.1319		466.3203		468.5367		470.8396		473.9773		477.0344		480.0995		485.6083		487.4675		492.2794		496.6283		500.5798		507.3844		510.7586		516.5066		521.5409		528.6683		535.6154		543.0334		551.0025		558.3248		568.5345		580.7372		589.5169		603.6879		617.1700		633.6531		649.1152		666.6556		686.3966		705.7413		727.8360		748.4224		766.3443		777.8787		783.1513		775.0052		754.9735		725.2712		690.9536		657.5775		626.3370		599.6115		577.5721		558.9428		546.5929		533.4947		521.7885		514.9776		507.1175		501.1816		495.6239		490.3711		487.1343		484.3490		481.4087		478.9567		477.6569		473.6486		473.2314		469.7361		468.1890		467.0217		466.5100		465.0617		464.0393		462.8420		462.2300		460.6596		
 0.370		426.0236		426.8386		428.9377		430.9192		432.9295		433.1299		435.4368		436.1618		438.3811		439.5453		442.0558		444.1746		444.2444		447.4493		449.4128		451.0074		453.1714		457.3186		458.8244		459.6141		463.9813		466.2049		468.4044		470.6471		473.7920		476.8972		479.9085		485.4409		487.2088		492.1091		496.4136		500.3106		507.1490		510.5290		516.2599		521.1917		528.3690		535.1953		542.6865		550.5625		557.9773		568.1430		580.2790		589.0498		603.2040		616.5209		632.9085		648.3524		665.7665		685.4778		704.6574		726.6701		747.1054		765.0709		776.7984		782.7217		775.2210		755.9103		726.5970		692.6848		659.3612		628.0102		601.1620		579.0516		560.2626		547.5138		534.2240		522.4715		515.5282		507.6039		501.5223		495.9336		490.6613		487.3787		484.5274		481.5124		479.0836		477.7142		473.7290		473.3380		469.8375		468.2455		467.0721		466.5576		465.0998		464.0832		462.8884		462.2637		460.6803		
 0.380		425.9612		426.7876		428.8880		430.8570		432.8304		433.0237		435.3818		436.0784		438.3029		439.4539		442.0049		444.0812		444.1501		447.3155		449.2862		450.8740		453.0807		457.2002		458.7520		459.4214		463.8307		466.0895		468.2720		470.4547		473.6068		476.7599		479.7175		485.2735		486.9501		491.9388		496.1990		500.0415		506.9135		510.2994		516.0132		520.8424		528.0696		534.7752		542.3396		550.1225		557.6298		567.7515		579.8208		588.5827		602.7201		615.8718		632.1639		647.5895		664.8774		684.5591		703.5735		725.5043		745.7884		763.7975		775.6959		781.9980		775.4368		756.8472		727.9228		694.4159		661.1450		629.6833		602.7124		580.5311		561.5824		548.4346		534.9533		523.1546		516.0788		508.0902		501.8630		496.2433		490.9514		487.6231		484.7058		481.6162		479.2194		477.7831		473.8144		473.4445		469.9389		468.3019		467.1554		466.6052		465.1378		464.1399		462.9349		462.2974		460.7009		
 0.390		425.8855		426.7349		428.8372		430.8114		432.7187		432.9155		435.3268		435.9951		438.2247		439.3626		441.9179		443.9879		444.0558		447.1816		449.1587		450.7407		452.9900		457.0805		458.6783		459.2409		463.6801		465.9656		468.1397		470.2622		473.4215		476.6226		479.5265		485.1060		486.6915		491.7685		495.9843		499.7723		506.6780		510.0699		515.7665		520.4931		527.7703		534.3550		541.9928		549.6825		557.2823		567.3599		579.3626		588.1156		602.2362		615.2227		631.4193		646.8267		663.9883		683.6403		702.4897		724.3384		744.4714		762.5241		774.5934		781.1322		775.0999		757.7841		729.2486		696.1471		662.9287		631.3564		604.2628		582.0105		562.9021		549.3554		535.6827		523.8376		516.6293		508.5766		502.2038		496.5531		491.2415		487.8675		484.8842		481.7200		479.3552		477.8519		473.8997		473.5510		470.0403		468.3584		467.2387		466.6528		465.1758		464.2005		462.9813		462.3311		460.7215		
 0.400		425.8099		426.6695		428.7864		430.7658		432.6069		432.8073		435.2448		435.9343		438.1298		439.2781		441.8305		443.8930		443.9555		447.0516		449.0304		450.6087		452.9002		456.9578		458.5923		459.0976		463.4938		465.8134		468.0073		470.0697		473.2347		476.4488		479.3265		484.9210		486.4327		491.5982		495.7743		499.5031		506.4425		509.8403		515.5197		520.1438		527.4709		533.9349		541.6459		549.2425		556.9348		566.9684		578.9044		587.6485		601.7523		614.5736		630.6747		646.0639		663.0993		682.7215		701.4058		723.1726		743.1543		761.2507		773.4910		780.2664		774.6046		757.9273		730.5744		697.8783		664.7125		633.0296		605.8132		583.4900		564.2219		550.2762		536.4120		524.5207		517.1799		509.0630		502.5445		496.8628		491.5316		488.1119		485.0627		481.8238		479.4910		477.9208		473.9850		473.6575		470.1417		468.4149		467.3220		466.7004		465.2139		464.2612		463.0278		462.3648		460.7422		
 0.410		425.7343		426.6041		428.7356		430.7202		432.4952		432.6991		435.1552		435.8757		438.0293		439.1947		441.7430		443.7978		443.8540		446.9592		448.9020		450.4797		452.8123		456.8350		458.5063		458.9544		463.3034		465.6612		467.8806		469.9113		473.0474		476.2644		479.1191		484.7181		486.1737		491.4162		495.5752		499.2340		506.2070		509.6234		515.2617		519.7945		527.1562		533.5148		541.2990		548.8025		556.5873		566.5769		578.4462		587.1814		601.2684		613.9246		629.9300		645.3011		662.2102		681.8028		700.3219		722.0067		741.8373		759.9773		772.3885		779.4007		774.1093		757.8963		731.1159		699.6094		666.4962		634.7027		607.3637		584.9695		565.5417		551.1970		537.1413		525.2037		517.7305		509.5494		502.8852		497.1725		491.8217		488.3563		485.2411		481.9276		479.6267		477.9896		474.0704		473.7640		470.2431		468.4714		467.4054		466.7480		465.2519		464.3218		463.0742		462.3985		460.7628		
 0.420		425.6586		426.5387		428.6847		430.6746		432.3835		432.5910		435.0656		435.8170		437.9288		439.1114		441.6556		443.7026		443.7526		446.8668		448.7736		450.3506		452.7245		456.7123		458.4204		458.8112		463.1130		465.5090		467.7582		469.7659		472.8602		476.0800		478.9117		484.5151		485.9148		491.1762		495.3761		498.9566		505.9662		509.4168		514.9974		519.4475		526.8206		533.1244		540.9521		548.3861		556.2382		566.1854		577.9880		586.7143		600.7845		613.2755		629.1854		644.5382		661.3211		680.8840		699.2381		720.8409		740.5203		758.7038		771.2860		778.5349		773.6140		757.8652		731.5774		700.5000		668.2440		636.3759		608.9141		586.4489		566.8615		552.1179		537.8707		525.8868		518.2811		510.0358		503.2259		497.4823		492.1118		488.6007		485.4195		482.0313		479.7625		478.0585		474.1557		473.8705		470.3445		468.5278		467.4887		466.7955		465.2899		464.3825		463.1207		462.4322		460.7834		
 0.430		425.5830		426.4733		428.6339		430.6289		432.2718		432.4828		434.9760		435.7584		437.8283		439.0280		441.5682		443.6074		443.6512		446.7744		448.6453		450.2215		452.6366		456.5896		458.3344		458.6680		462.9225		465.3569		467.6358		469.6205		472.6729		475.8955		478.7043		484.3121		485.6559		490.9362		495.1770		498.6777		505.7225		509.2101		514.7331		519.1163		526.4849		532.7523		540.6066		547.9932		555.8834		565.7852		577.4915		586.2472		600.2709		612.6264		628.4408		643.7754		660.4320		679.9653		698.1542		719.6751		739.2033		757.4304		770.1836		777.6691		773.1187		757.8342		732.0389		701.3719		669.4909		637.9453		610.4645		587.9284		568.1812		553.0387		538.6000		526.5699		518.8316		510.5221		503.5666		497.7920		492.4019		488.8451		485.5979		482.1351		479.8983		478.1273		474.2410		473.9770		470.4459		468.5843		467.5720		466.8431		465.3279		464.4431		463.1671		462.4659		460.8040		
 0.440		425.5074		426.4079		428.5831		430.5833		432.1601		432.3746		434.8864		435.6997		437.7279		438.9446		441.4808		443.5121		443.5497		446.6821		448.5169		450.0925		452.5488		456.4669		458.2484		458.5247		462.7321		465.2047		467.5135		469.4750		472.4857		475.7111		478.4969		484.1091		485.3969		490.6963		494.9779		498.3989		505.4789		509.0035		514.4688		518.7850		526.1493		532.3801		540.2661		547.6002		555.5286		565.3837		576.9869		585.8015		599.7309		611.9773		627.6962		643.0110		659.5429		679.0465		697.0703		718.5092		737.8863		756.1570		769.0811		776.8034		772.6234		757.8032		732.5003		702.2438		670.7377		639.2350		611.8449		589.4079		569.5010		553.9595		539.3293		527.2529		519.3822		511.0085		503.9074		498.1017		492.6921		489.0895		485.7763		482.2389		480.0341		478.1961		474.3263		474.0836		470.5473		468.6408		467.6553		466.8907		465.3660		464.5038		463.2136		462.4996		460.8247		
 0.450		425.4318		426.3425		428.5323		430.5377		432.0483		432.2664		434.7969		435.6411		437.6274		438.8612		441.3933		443.4169		443.4483		446.5897		448.3886		449.9634		452.4609		456.3441		458.1624		458.3815		462.5417		465.0525		467.3911		469.3296		472.2984		475.5267		478.2895		483.9061		485.1380		490.4563		494.7788		498.1200		505.2353		508.7969		514.2045		518.4537		525.8137		532.0080		539.9255		547.2073		555.1738		564.9821		576.4823		585.3849		599.1910		611.3261		626.9668		642.2412		658.6529		678.0902		695.9859		717.3434		736.5692		754.8836		767.9786		775.9376		772.1281		757.7722		732.9618		703.1158		671.9845		640.5247		613.0912		590.5653		570.7159		554.8803		540.0587		527.9360		519.9328		511.4949		504.2481		498.4115		492.9822		489.3339		485.9547		482.3427		480.1699		478.2650		474.4117		474.1901		470.6487		468.6972		467.7387		466.9383		465.4040		464.5644		463.2600		462.5333		460.8453		
 0.460		425.3561		426.2771		428.4815		430.4921		431.9366		432.1582		434.7073		435.5825		437.5269		438.7778		441.3059		443.3217		443.3469		446.4973		448.2602		449.8344		452.3730		456.2214		458.0764		458.2383		462.3513		464.9003		467.2688		469.1842		472.1112		475.3422		478.0821		483.7032		484.8790		490.2163		494.5797		497.8412		504.9916		508.5903		513.9402		518.1225		525.4780		531.6358		539.5849		546.8144		554.8190		564.5805		575.9777		584.9684		598.6510		610.6748		626.2652		641.4715		657.7623		677.0849		694.8784		716.1716		735.2522		753.6102		766.8762		775.0718		771.6329		757.7411		733.4232		703.9877		673.2313		641.8144		614.3374		591.6896		571.7061		555.7655		540.8248		528.6189		520.4833		511.9813		504.5888		498.7212		493.2723		489.5783		486.1331		482.4464		480.3057		478.3338		474.4970		474.2966		470.7501		468.7537		467.8220		466.9859		465.4420		464.6250		463.3065		462.5670		460.8659		
 0.470		425.2805		426.2117		428.4306		430.4465		431.8249		432.0500		434.6177		435.5238		437.4264		438.6945		441.2185		443.2265		443.2454		446.4049		448.1319		449.7053		452.2852		456.0987		457.9904		458.0950		462.1609		464.7481		467.1464		469.0388		471.9239		475.1578		477.8748		483.5002		484.6201		489.9763		494.3806		497.5623		504.7480		508.3837		513.6759		517.7912		525.1424		531.2637		539.2444		546.4214		554.4642		564.1789		575.4731		584.5518		598.1110		610.0236		625.5636		640.7017		656.8718		676.0797		693.7709		714.9451		733.9612		752.3368		765.7737		774.2061		771.1376		757.7101		733.8847		704.8596		674.4781		643.1040		615.5837		592.8139		572.6962		556.6426		541.6506		529.2543		521.0136		512.4448		504.9355		499.0309		493.5624		489.8227		486.3116		482.5502		480.4414		478.4027		474.5823		474.4031		470.8515		468.8102		467.9053		467.0335		465.4801		464.6857		463.3529		462.6007		460.8866		
 0.480		425.2049		426.1463		428.3798		430.4009		431.7132		431.9418		434.5281		435.4652		437.3259		438.6111		441.1310		443.1312		443.1440		446.3125		448.0035		449.5762		452.1973		455.9760		457.9044		457.9518		461.9705		464.5959		467.0240		468.8933		471.7367		474.9734		477.6674		483.2972		484.3612		489.7363		494.1815		497.2835		504.5043		508.1771		513.4116		517.4600		524.8067		530.8915		538.9038		546.0285		554.1094		563.7773		574.9685		584.1353		597.5710		609.3723		624.8620		639.9319		655.9813		675.0745		692.6633		713.7185		732.6740		751.1070		764.6712		773.3403		770.6423		757.6791		734.3461		705.7316		675.7250		644.3937		616.8300		593.9382		573.6864		557.5197		542.4765		529.8896		521.5338		512.8717		505.3210		499.3235		493.7936		490.0553		486.5049		482.6665		480.5763		478.4716		474.6677		474.5096		470.9529		468.8667		467.9886		467.0811		465.5181		464.7463		463.3994		462.6344		460.9072		
 0.490		425.1293		426.0809		428.3290		430.3552		431.6015		431.8336		434.4385		435.4065		437.2254		438.5277		441.0436		443.0360		443.0426		446.2201		447.8751		449.4472		452.1095		455.8532		457.8185		457.8086		461.7801		464.4437		466.9017		468.7479		471.5494		474.7889		477.4600		483.0942		484.1022		489.4964		493.9824		497.0046		504.2607		507.9705		513.1473		517.1287		524.4711		530.5194		538.5632		545.6356		553.7546		563.3757		574.4639		583.7187		597.0310		608.7211		624.1604		639.1621		655.0907		674.0692		691.5558		712.4920		731.3869		749.8863		763.5688		772.4934		770.1470		757.6481		734.8076		706.6035		676.9718		645.6834		618.0763		595.0624		574.6766		558.3968		543.3023		530.5250		522.0540		513.2986		505.7065		499.6145		494.0029		490.2789		486.7197		482.8152		480.7063		478.5421		474.6471		474.4707		470.9497		468.8414		467.9738		467.0821		465.5163		464.7175		463.4324		462.5911		460.8716		
 0.500		425.0536		426.0155		428.2782		430.3096		431.4897		431.7254		434.3489		435.3479		437.1249		438.4443		440.9562		442.9408		442.9411		446.1277		447.7468		449.3181		452.0216		455.7305		457.7325		457.6653		461.5896		464.2915		466.7793		468.6025		471.3621		474.6045		477.2526		482.8912		483.8433		489.2564		493.7833		496.7257		504.0170		507.7639		512.8830		516.7974		524.1354		530.1472		538.2226		545.2427		553.3998		562.9741		573.9593		583.3022		596.4911		608.0698		623.4587		638.3923		654.2002		673.0640		690.4483		711.2655		730.0997		748.6657		762.4387		771.6743		769.7321		757.6170		735.2691		707.4754		678.2186		646.9731		619.3226		596.1867		575.6667		559.2739		544.1281		531.1604		522.5743		513.7255		506.0920		499.9056		494.2122		490.5026		486.9345		482.9638		480.8363		478.6126		474.6214		474.4100		470.9186		468.7841		467.9072		467.0512		465.4811		464.5972		463.4494		462.4393		460.7422		
 0.510		424.9625		425.9794		428.2596		430.2576		431.4394		431.7004		434.3093		435.3141		437.0745		438.4011		440.8900		442.8646		442.8554		446.0410		447.6184		449.1890		451.9338		455.6078		457.6465		457.5221		461.3992		464.1393		466.6569		468.4571		471.1749		474.4201		477.0452		482.6883		483.5843		489.0164		493.5842		496.4469		503.7734		507.5572		512.6187		516.4662		523.7998		529.7750		537.8821		544.8497		553.0450		562.5725		573.4547		582.8856		595.9511		607.4186		622.7571		637.6225		653.3096		672.0588		689.3408		710.0389		728.8126		747.4451		761.3077		770.8551		769.4265		757.6612		735.7305		708.3474		679.4654		648.2628		620.5689		597.3110		576.6569		560.1510		544.9539		531.7957		523.0945		514.1524		506.4775		500.1966		494.4216		490.7262		487.1493		483.1125		480.9663		478.6832		474.5957		474.3493		470.8876		468.7269		467.8406		467.0204		465.4460		464.4769		463.4664		462.2874		460.6129		
 0.520		424.8670		425.9541		428.2563		430.2017		431.4345		431.7536		434.3285		435.3176		437.1194		438.4586		440.8970		442.8817		442.8976		446.0527		447.6696		449.2101		451.9213		455.6155		457.6428		457.4955		461.3211		464.0645		466.5759		468.3536		471.0179		474.2367		476.8378		482.4853		483.3254		488.7764		493.3851		496.1680		503.5297		507.3506		512.3544		516.1349		523.4642		529.4029		537.5415		544.4568		552.6901		562.1709		572.9501		582.4691		595.4111		606.7673		622.0555		636.8527		652.4191		671.0535		688.2333		708.8124		727.5254		746.2244		760.1767		770.0360		769.1209		757.7777		736.2648		709.2193		680.7122		649.5525		621.8151		598.4353		577.6471		561.0281		545.7797		532.4311		523.6147		514.5793		506.8630		500.4876		494.6309		490.9498		487.3641		483.2611		481.0963		478.7537		474.5701		474.2886		470.8565		468.6697		467.7741		466.9896		465.4109		464.3567		463.4834		462.1356		460.4835		
 0.530		424.7714		425.9289		428.2530		430.1459		431.4296		431.8069		434.3476		435.3211		437.1642		438.5161		440.9040		442.8988		442.9398		446.0643		447.7244		449.2479		451.9253		455.6691		457.6816		457.5536		461.3553		464.0967		466.5753		468.3730		471.0653		474.2953		476.8064		482.4320		483.2582		488.6490		493.2803		495.9746		503.3129		507.1459		512.0901		515.8037		523.1285		529.0307		537.2009		544.0639		552.3353		561.7693		572.4456		582.0525		594.8711		606.1160		621.3539		636.0829		651.5286		670.0483		687.1258		707.5859		726.2383		745.0038		759.0458		769.2169		768.8153		757.8942		736.8023		710.1653		681.9591		650.8422		623.0614		599.5596		578.6372		561.9053		546.6055		533.0665		524.1349		515.0062		507.2485		500.7786		494.8402		491.1735		487.5789		483.4098		481.2263		478.8242		474.5444		474.2279		470.8255		468.6125		467.7075		466.9588		465.3758		464.2364		463.5004		461.9838		460.3541		
 0.540		424.6759		425.9036		428.2496		430.0900		431.4247		431.8602		434.3668		435.3245		437.2090		438.5737		440.9111		442.9159		442.9820		446.0759		447.7793		449.2857		451.9294		455.7226		457.7204		457.6117		461.3895		464.1289		466.5746		468.3925		471.1127		474.3539		476.7979		482.4250		483.2993		488.6279		493.3205		496.0075		503.2487		507.0373		512.0227		515.6530		522.8985		528.7612		536.8932		543.6709		551.9805		561.3677		571.9410		581.6360		594.3311		605.4648		620.6523		635.3131		650.6380		669.0431		686.0182		706.3594		724.9511		743.7832		757.9148		768.3978		768.5096		758.0107		737.3399		711.1247		683.2059		652.1296		624.3077		600.6838		579.6274		562.7824		547.4314		533.7019		524.6552		515.4331		507.6340		501.0696		495.0495		491.3971		487.7937		483.5585		481.3563		478.8947		474.5187		474.1671		470.7944		468.5553		467.6409		466.9280		465.3406		464.1161		463.5174		461.8319		460.2248		
 0.550		424.5804		425.8784		428.2463		430.0342		431.4198		431.9135		434.3859		435.3280		437.2538		438.6312		440.9181		442.9330		443.0243		446.0876		447.8342		449.3235		451.9335		455.7762		457.7593		457.6698		461.4236		464.1611		466.5740		468.4120		471.1601		474.4125		476.7894		482.4179		483.3403		488.6068		493.3608		496.0403		503.1845		506.9287		511.9863		515.5801		522.7683		528.7053		536.8199		543.5415		551.7430		561.0585		571.4890		581.2194		593.7912		604.8135		619.9506		634.5433		649.7475		668.0378		684.9107		705.1328		723.6640		742.5625		756.7838		767.5787		768.2040		758.1272		737.8774		712.0840		684.4135		653.3871		625.5581		601.8081		580.6176		563.6595		548.2572		534.3372		525.1754		515.8599		508.0196		501.3606		495.2588		491.6208		488.0085		483.7071		481.4863		478.9652		474.4930		474.1064		470.7634		468.4980		467.5743		466.8971		465.3055		463.9959		463.5344		461.6801		460.0954		
 0.560		424.4849		425.8531		428.2430		429.9784		431.4149		431.9667		434.4051		435.3315		437.2986		438.6887		440.9252		442.9501		443.0665		446.0992		447.8890		449.3613		451.9376		455.8298		457.7981		457.7279		461.4578		464.1933		466.5734		468.4315		471.2075		474.4711		476.7810		482.4109		483.3814		488.5857		493.4010		496.0731		503.1203		506.8201		511.9498		515.5072		522.6381		528.6493		536.7466		543.4385		551.5608		560.8673		571.2710		580.9641		593.3863		604.2477		619.2490		633.7735		648.8569		667.0326		683.8032		703.9063		722.3768		741.3419		755.6528		766.7596		767.8984		758.2437		738.4149		713.0433		685.6184		654.6446		626.8129		602.9324		581.6077		564.5366		549.0830		534.9726		525.6956		516.2868		508.4051		501.6517		495.4681		491.8444		488.2233		483.8558		481.6163		479.0357		474.4674		474.0457		470.7323		468.4408		467.5077		466.8663		465.2704		463.8756		463.5514		461.5283		459.9660		
 0.570		424.3893		425.8279		428.2397		429.9225		431.4100		432.0200		434.4243		435.3350		437.3434		438.7462		440.9322		442.9672		443.1087		446.1108		447.9439		449.3991		451.9417		455.8833		457.8369		457.7861		461.4920		464.2255		466.5728		468.4509		471.2549		474.5297		476.7725		482.4038		483.4225		488.5646		493.4413		496.1059		503.0561		506.7116		511.9134		515.4342		522.5080		528.5933		536.6733		543.3356		551.3787		560.6762		571.0530		580.7242		593.0652		603.8927		618.8186		633.1760		648.0285		666.0274		682.6957		702.6798		721.0897		740.1213		754.5219		765.9404		767.5928		758.3602		738.9525		714.0027		686.8234		655.9022		628.0677		604.0828		582.5995		565.4219		549.9058		535.6080		526.2158		516.7137		508.7906		501.9427		495.6775		492.0680		488.4381		484.0044		481.7463		479.1062		474.4417		473.9850		470.7012		468.3836		467.4412		466.8355		465.2353		463.7553		463.5684		461.3764		459.8367		
 0.580		424.2938		425.8027		428.2363		429.8667		431.4051		432.0733		434.4434		435.3385		437.3882		438.8038		440.9392		442.9843		443.1509		446.1225		447.9988		449.4370		451.9458		455.9369		457.8757		457.8442		461.5262		464.2577		466.5722		468.4704		471.3022		474.5883		476.7640		482.3968		483.4635		488.5435		493.4815		496.1387		502.9919		506.6030		511.8769		515.3613		522.3778		528.5373		536.5999		543.2326		551.1965		560.4850		570.8351		580.4843		592.7441		603.5377		618.4033		632.6994		647.5192		665.2806		681.6925		701.4533		719.8025		738.9006		753.3909		765.1213		767.2872		758.4767		739.4900		714.9620		688.0283		657.1597		629.3225		605.2631		583.6020		566.3128		550.7182		536.2380		526.7361		517.1406		509.1761		502.2337		495.8868		492.2917		488.6529		484.1531		481.8763		479.1767		474.4160		473.9243		470.6702		468.3264		467.3746		466.8047		465.2002		463.6351		463.5854		461.2246		459.7073		
 0.590		424.1983		425.7774		428.2330		429.8108		431.4001		432.1266		434.4626		435.3420		437.4330		438.8613		440.9463		443.0014		443.1931		446.1341		448.0536		449.4748		451.9499		455.9905		457.9145		457.9023		461.5604		464.2899		466.5716		468.4899		471.3496		474.6470		476.7556		482.3897		483.5046		488.5225		493.5217		496.1715		502.9277		506.4944		511.8404		515.2884		522.2476		528.4813		536.5266		543.1297		551.0144		560.2938		570.6171		580.2444		592.4230		603.1827		617.9879		632.2227		647.0099		664.6412		681.0259		700.6642		718.5642		737.6800		752.2599		764.3022		766.9816		758.5932		740.0276		715.9214		689.2333		658.4172		630.5773		606.4434		584.6044		567.2037		551.5306		536.8637		527.2581		517.5675		509.5616		502.5247		496.1044		492.5153		488.8678		484.3017		482.0063		479.2472		474.3904		473.8636		470.6391		468.2692		467.3080		466.7739		465.1650		463.5148		463.6024		461.0728		459.5779		
 0.600		424.1027		425.7522		428.2297		429.7550		431.3952		432.1799		434.4817		435.3455		437.4779		438.9188		440.9533		443.0185		443.2353		446.1458		448.1085		449.5126		451.9540		456.0440		457.9533		457.9604		461.5946		464.3221		466.5709		468.5094		471.3970		474.7056		476.7471		482.3827		483.5457		488.5014		493.5620		496.2044		502.8635		506.3858		511.8040		515.2155		522.1175		528.4253		536.4533		543.0267		550.8322		560.1026		570.3991		580.0045		592.1018		602.8277		617.5725		631.7461		646.5006		664.0017		680.3593		700.0524		717.7818		736.7063		751.1290		763.4831		766.6760		758.7097		740.5651		716.8807		690.4382		659.6747		631.8320		607.6237		585.6069		568.0946		552.3431		537.4894		527.7827		518.0092		509.9627		502.8257		496.3417		492.7247		489.0826		484.4138		482.1363		479.3088		474.3647		473.8029		470.6081		468.2038		467.2426		466.7431		465.1299		463.3945		463.6194		460.9209		459.4486		
 0.610		424.0072		425.7269		428.2264		429.6991		431.3903		432.2331		434.5009		435.3490		437.5227		438.9763		440.9603		443.0356		443.2775		446.1574		448.1634		449.5504		451.9581		456.0976		457.9921		458.0185		461.6288		464.3544		466.5703		468.5288		471.4444		474.7642		476.7387		482.3756		483.5867		488.4803		493.6022		496.2372		502.7993		506.2772		511.7675		515.1426		521.9873		528.3693		536.3799		542.9238		550.6501		559.9114		570.1812		579.7646		591.7807		602.4727		617.1571		631.2695		645.9913		663.3623		679.6927		699.4406		716.9994		736.0136		750.3300		762.6731		766.3704		758.8262		741.1026		717.8400		691.6431		660.9323		633.0868		608.8041		586.6093		568.9855		553.1555		538.1151		528.3073		518.4541		510.4136		503.1444		496.5789		492.9324		489.2774		484.5254		482.2390		479.3663		474.3504		473.7419		470.5778		468.1234		467.1872		466.7122		465.0948		463.2795		463.6363		460.7702		459.3192		
 0.620		423.9205		425.7019		428.2230		429.6433		431.3854		432.2864		434.5201		435.3524		437.5675		439.0339		440.9674		443.0527		443.3197		446.1690		448.2182		449.5882		451.9622		456.1512		458.0309		458.0766		461.6630		464.3866		466.5697		468.5483		471.4918		474.8228		476.7302		482.3685		483.6278		488.4592		493.6425		496.2700		502.7351		506.1686		511.7311		515.0697		521.8571		528.3134		536.3066		542.8209		550.4679		559.7202		569.9632		579.5247		591.4596		602.1177		616.7418		630.7929		645.4820		662.7228		679.0261		698.8288		716.2170		735.3210		749.6250		762.1372		766.0632		758.9427		741.6402		718.7994		692.8481		662.1898		634.3416		609.9844		587.6118		569.8763		553.9679		538.7408		528.8319		518.8990		510.8646		503.4631		496.8161		493.1401		489.4647		484.6369		482.3223		479.4239		474.3697		473.6687		470.5474		468.0430		467.1318		466.6850		465.0627		463.1646		463.6208		460.6208		459.1827		
 0.630		423.8955		425.6820		428.2197		429.5875		431.3736		432.3397		434.5206		435.3559		437.6123		439.0914		441.0059		443.0698		443.3619		446.2049		448.2731		449.6260		451.9601		456.2047		458.0697		458.1347		461.6972		464.4188		466.5691		468.5678		471.5391		474.8814		476.7217		482.3615		483.6689		488.4381		493.6827		496.3028		502.6709		506.0600		511.6946		514.9968		521.7270		528.2574		536.2333		542.7179		550.2858		559.5290		569.7452		579.2848		591.1385		601.7627		616.3264		630.3162		644.9727		662.0834		678.3595		698.2170		715.4346		734.6283		748.9200		761.6013		765.7508		758.9943		742.1777		719.7587		694.0530		663.4473		635.5964		611.1647		588.6142		570.7672		554.7803		539.3665		529.3565		519.3440		511.3155		503.7817		497.0533		493.3479		489.6519		484.7484		482.4056		479.4814		474.3889		473.5954		470.5171		467.9627		467.0764		466.6579		465.0310		463.0497		463.5593		460.4713		459.0325		
 0.640		423.8705		425.6620		428.2032		429.5864		431.3562		432.4163		434.5204		435.3568		437.6621		439.1522		441.0565		443.0903		443.4121		446.2583		448.3210		449.6639		451.9328		456.2583		458.1071		458.1928		461.7314		464.4388		466.5925		468.6012		471.5789		474.9400		476.7133		482.3667		483.7099		488.4170		493.7230		496.3356		502.6067		505.9515		511.6581		514.9239		521.5968		528.2014		536.1599		542.6150		550.1036		559.3378		569.5273		579.0448		590.8174		601.4077		615.9110		629.8396		644.4634		661.4439		677.6929		697.6052		714.6522		733.9356		748.2150		761.0654		765.4385		758.9379		742.6762		720.7180		695.2580		664.7049		636.8512		612.3451		589.6167		571.6581		555.5927		539.9923		529.8811		519.7889		511.7664		504.1004		497.2905		493.5556		489.8392		484.8599		482.4889		479.5389		474.4081		473.5221		470.4868		467.8823		467.0210		466.6309		464.9993		462.9348		463.4978		460.3219		458.8822		
 0.650		423.8455		425.6421		428.1803		429.5971		431.3388		432.5001		434.5202		435.3551		437.7165		439.2168		441.1070		443.1271		443.4740		446.3117		448.3389		449.7114		451.9055		456.2840		458.1314		458.2542		461.7646		464.4523		466.6215		468.6472		471.6112		474.9975		476.7064		482.3979		483.7569		488.3959		493.7312		496.3690		502.5425		505.8429		511.6217		514.8530		521.4666		528.1454		536.0866		542.5120		549.9215		559.1466		569.3093		578.8049		590.4963		601.0526		615.4957		629.3630		643.9541		660.8045		677.0263		696.9934		713.8698		733.2429		747.5100		760.5295		765.1261		758.8814		743.1388		721.5895		696.4629		665.9624		638.1060		613.5254		590.6191		572.5490		556.4052		540.6180		530.4057		520.2338		512.2174		504.4191		497.5278		493.7633		490.0264		484.9715		482.5722		479.5965		474.4274		473.4489		470.4565		467.8020		466.9656		466.6039		464.9676		462.8199		463.4363		460.1724		458.7320		
 0.660		423.8206		425.6221		428.1575		429.6079		431.3214		432.5840		434.5200		435.3533		437.7708		439.2814		441.1575		443.1639		443.5360		446.3651		448.3567		449.7608		451.8782		456.3071		458.1557		458.3177		461.7972		464.4657		466.6505		468.6931		471.6434		475.0277		476.7448		482.4291		483.8048		488.3860		493.7281		496.4029		502.4961		505.7291		511.5939		514.7911		521.3365		528.0894		536.0168		542.4101		549.7393		558.9554		569.0913		578.5650		590.1752		600.6976		615.0803		628.8864		643.4448		660.1650		676.3597		696.3816		713.0874		732.5502		746.8050		759.9936		764.8138		758.8250		743.6014		722.4143		697.5296		667.2199		639.3608		614.7057		591.6216		573.4399		557.2176		541.2437		530.9303		520.6788		512.6683		504.7378		497.7650		493.9710		490.2137		485.0830		482.6555		479.6540		474.4466		473.3756		470.4262		467.7216		466.9102		466.5768		464.9359		462.7050		463.3748		460.0230		458.5817		
 0.670		423.7956		425.6022		428.1346		429.6186		431.3040		432.6678		434.5198		435.3516		437.8252		439.3460		441.2080		443.2007		443.5979		446.4185		448.3745		449.8102		451.8509		456.3301		458.1800		458.3811		461.8299		464.4792		466.6796		468.7390		471.6757		475.0578		476.7832		482.4604		483.8526		488.3908		493.7251		496.4368		502.5116		505.5855		511.5988		514.7292		521.2522		528.0309		535.9485		542.3099		549.5572		558.7642		568.8755		578.3251		589.8540		600.3426		614.6649		628.4097		642.9355		659.5256		675.6931		695.7698		712.3050		731.8575		746.1001		759.4577		764.5014		758.7686		744.0641		723.2390		698.5513		668.4885		640.6199		615.8860		592.6240		574.3308		558.0300		541.8694		531.4549		521.1237		513.1192		505.0564		498.0022		494.1787		490.4009		485.1945		482.7388		479.7116		474.4659		473.3023		470.3958		467.6413		466.8548		466.5498		464.9042		462.5901		463.3133		459.8735		458.4315		
 0.680		423.7706		425.5823		428.1117		429.6294		431.2866		432.7516		434.5196		435.3499		437.8795		439.4107		441.2586		443.2375		443.6599		446.4719		448.3923		449.8597		451.8235		456.3532		458.2043		458.4446		461.8626		464.4927		466.7086		468.7849		471.7079		475.0879		476.8216		482.4916		483.9005		488.3956		493.7220		496.4707		502.5271		505.4419		511.6038		514.6673		521.2011		527.9716		535.8802		542.2097		549.3700		558.5945		568.6617		578.0852		589.5612		599.9876		614.2586		627.9318		642.4262		658.8861		675.0266		695.1580		711.5226		731.1648		745.3951		758.9218		764.1890		758.7122		744.5267		724.0637		699.5729		669.7577		641.8981		617.1421		593.6265		575.2217		558.8424		542.4951		531.9795		521.5686		513.5702		505.3751		498.2394		494.3864		490.5882		485.3060		482.8221		479.7691		474.4851		473.2291		470.3655		467.5609		466.7994		466.5228		464.8725		462.4751		463.2518		459.7241		458.2813		
 0.690		423.7456		425.5623		428.0888		429.6401		431.2692		432.8355		434.5194		435.3482		437.9339		439.4753		441.3091		443.2743		443.7218		446.5253		448.4101		449.9091		451.7962		456.3763		458.2286		458.5081		461.8953		464.5062		466.7376		468.8309		471.7402		475.1181		476.8601		482.5228		483.9484		488.4004		493.7190		496.5046		502.5426		505.2983		511.6087		514.6055		521.1500		527.9123		535.8119		542.1094		549.1813		558.4273		568.4479		577.8278		589.2696		599.6284		613.8573		627.4308		641.8887		658.2496		674.3600		694.5462		710.7402		730.4721		744.6901		758.3859		763.8767		758.6558		744.9893		724.8884		700.5945		671.0269		643.1762		618.4787		594.8930		576.1939		559.6548		543.1208		532.5041		522.0135		514.0211		505.6938		498.4766		494.5941		490.7755		485.4176		482.9054		479.8267		474.5044		473.1558		470.3352		467.4805		466.7439		466.4958		464.8408		462.3602		463.1903		459.5746		458.1310		
 0.700		423.7206		425.5424		428.0659		429.6509		431.2518		432.9193		434.5192		435.3464		437.9883		439.5399		441.3596		443.3111		443.7838		446.5786		448.4279		449.9585		451.7689		456.3993		458.2529		458.5716		461.9280		464.5196		466.7666		468.8768		471.7724		475.1482		476.8985		482.5540		483.9963		488.4052		493.7159		496.5386		502.5581		505.1547		511.6136		514.5436		521.0989		527.8530		535.7436		542.0092		548.9925		558.2601		568.2341		577.5696		588.9779		599.2652		613.4560		626.9298		641.3182		657.6247		673.7150		693.9344		709.9578		729.7794		743.9851		757.8500		763.5643		758.5993		745.4519		725.7131		701.6162		672.2962		644.4544		619.8152		596.2079		577.3835		560.6201		543.8551		533.0287		522.4585		514.4721		506.0124		498.7139		494.8018		490.9627		485.5291		482.9887		479.8842		474.5236		473.0825		470.3049		467.4002		466.6885		466.4687		464.8091		462.2453		463.1288		459.4252		457.9808		
 0.710		423.6956		425.5225		428.0430		429.6616		431.2344		433.0031		434.5190		435.3447		438.0426		439.6045		441.4102		443.3478		443.8457		446.6320		448.4457		450.0079		451.7416		456.4224		458.2772		458.6351		461.9607		464.5331		466.7956		468.9227		471.8047		475.1783		476.9369		482.5853		484.0441		488.4100		493.7129		496.5725		502.5736		505.0111		511.6185		514.4817		521.0478		527.7936		535.6753		541.9090		548.8037		558.0929		568.0203		577.3113		588.6862		598.9021		613.0547		626.4288		640.7478		656.9998		673.0737		693.3213		709.1754		729.0867		743.2801		757.3141		763.2520		758.5429		745.9145		726.5378		702.6378		673.5654		645.7325		621.1518		597.5228		578.5730		561.6295		544.8167		533.8712		523.0975		514.9949		506.3311		498.9511		495.0095		491.1500		485.6406		483.0720		479.9417		474.5429		473.0093		470.2745		467.3198		466.6331		466.4417		464.7774		462.1304		463.0673		459.2757		457.8306		
 0.720		423.6706		425.5025		428.0202		429.6724		431.2170		433.0870		434.5188		435.3430		438.0970		439.6691		441.4607		443.3846		443.9077		446.6854		448.4635		450.0573		451.7143		456.4454		458.3015		458.6986		461.9934		464.5466		466.8246		468.9687		471.8369		475.2085		476.9753		482.6165		484.0920		488.4148		493.7099		496.6064		502.5890		504.8675		511.6235		514.4198		520.9968		527.7343		535.6070		541.8088		548.6149		557.9257		567.8064		577.0530		588.3945		598.5390		612.6534		625.9277		640.1773		656.3749		672.4323		692.6408		708.4045		728.3940		742.6045		756.7782		762.9396		758.4865		746.3771		727.3625		703.6594		674.8346		647.0107		622.4884		598.8377		579.7626		562.6389		545.7782		534.7385		523.8816		515.7202		506.9834		499.4559		495.3852		491.4206		485.8024		483.1553		479.9993		474.5621		472.9360		470.2442		467.2395		466.5777		466.4147		464.7457		462.0155		463.0058		459.1263		457.6803		
 0.730		423.6457		425.4826		427.9973		429.6831		431.1996		433.1708		434.5186		435.3412		438.1513		439.7337		441.5112		443.4214		443.9697		446.7388		448.4813		450.1067		451.6870		456.4685		458.3258		458.7621		462.0260		464.5601		466.8537		469.0146		471.8691		475.2386		477.0137		482.6477		484.1399		488.4196		493.7068		496.6403		502.6045		504.7239		511.6284		514.3579		520.9457		527.6750		535.5387		541.7086		548.4262		557.7585		567.5926		576.7947		588.1029		598.1759		612.2521		625.4267		639.6069		655.7500		671.7910		691.9604		707.6786		727.7084		741.9702		756.2423		762.6272		758.4301		746.8397		728.1872		704.6810		676.1038		648.2888		623.8250		600.1526		580.9521		563.6483		546.7398		535.6058		524.6657		516.4456		507.6417		500.0553		495.9106		491.8653		486.2629		483.5846		480.3531		474.8581		473.1691		470.3944		467.3135		466.6277		466.4517		464.7493		461.9246		462.9443		458.9768		457.5301		
 0.740		423.6207		425.4627		427.9744		429.6939		431.1822		433.2547		434.5184		435.3395		438.2057		439.7984		441.5617		443.4582		444.0316		446.7922		448.4991		450.1561		451.6597		456.4915		458.3501		458.8256		462.0587		464.5735		466.8827		469.0605		471.9014		475.2687		477.0522		482.6790		484.1878		488.4244		493.7038		496.6742		502.6200		504.5803		511.6333		514.2961		520.8946		527.6157		535.4704		541.6084		548.2374		557.5913		567.3788		576.5364		587.8112		597.8127		611.8508		624.9257		639.0364		655.1252		671.1497		691.2799		706.9526		727.0230		741.3359		755.6891		762.3149		758.3821		747.3024		729.0119		705.7027		677.3731		649.5670		625.1615		601.4675		582.1417		564.6577		547.7014		536.4730		525.4497		517.1709		508.3000		500.6548		496.4359		492.3099		486.7234		484.0231		480.7657		475.2705		473.6202		470.7483		467.6457		466.9493		466.7455		465.0128		462.2472		463.2201		459.2186		457.7813		
 0.750		423.6640		425.4964		427.9943		429.7304		431.1823		433.3402		434.5182		435.3378		438.2600		439.8630		441.6123		443.4950		444.0936		446.8456		448.5169		450.2055		451.6324		456.5146		458.3744		458.8891		462.0914		464.5870		466.9117		469.1065		471.9336		475.2989		477.0906		482.7102		484.2356		488.4292		493.7007		496.7081		502.6355		504.4366		511.6382		514.2342		520.8435		527.5564		535.4021		541.5082		548.0486		557.4241		567.1650		576.2782		587.5195		597.4496		611.4495		624.4247		638.4660		654.5003		670.5083		690.5995		706.2266		726.3376		740.7016		755.0966		761.9821		758.4399		747.7650		729.8366		706.7243		678.6423		650.8451		626.4981		602.7824		583.3312		565.6671		548.6630		537.3403		526.2338		517.8962		508.9584		501.2542		496.9613		492.7546		487.1840		484.4616		481.1783		475.6829		474.0713		471.1022		467.9778		467.2708		467.0393		465.2763		462.5698		463.4996		459.4900		458.0901		
 0.760		423.8669		425.6955		428.1911		429.9195		431.3601		433.4812		434.7170		435.5178		438.4251		440.0143		441.7573		443.6371		444.2210		446.9762		448.6234		450.3085		451.6752		456.5844		458.4196		458.9609		462.1241		464.6005		466.9407		469.1524		471.9659		475.3290		477.1290		482.7414		484.2835		488.4340		493.6977		496.7420		502.6510		504.2930		511.6432		514.1723		520.7924		527.4971		535.3338		541.4080		547.8598		557.2569		566.9512		576.0199		587.2278		597.0865		611.0482		623.9236		637.8955		653.8754		669.8670		689.9190		705.5006		725.6523		740.0672		754.5040		761.6457		758.4977		748.2276		730.6613		707.7459		679.9115		652.1233		627.8347		604.0973		584.5208		566.6765		549.6246		538.2076		527.0179		518.6216		509.6167		501.8536		497.4866		493.1993		487.6445		484.9001		481.5909		476.0953		474.5224		471.4562		468.3100		467.5924		467.3331		465.5398		462.8924		463.7791		459.7614		458.3989		
 0.770		424.0698		425.8947		428.3879		430.1086		431.5378		433.6222		434.9209		435.7149		438.6089		440.1874		441.9357		443.8290		444.3878		447.1663		448.8262		450.4920		451.8675		456.8110		458.5840		459.1446		462.3153		464.8131		467.1080		469.3096		472.0934		475.4273		477.2083		482.8135		484.3440		488.4394		493.6946		496.7759		502.6665		504.1494		511.6481		514.1104		520.7413		527.4378		535.2655		541.3078		547.6711		557.0897		566.7374		575.7616		586.9362		596.7233		610.6469		623.4226		637.3251		653.2505		669.2257		689.2385		704.7746		724.9669		739.4329		753.9114		761.3094		758.5556		748.5594		731.4730		708.7676		681.1808		653.4014		629.1713		605.4122		585.7103		567.6858		550.5861		539.0748		527.8020		519.3469		510.2751		502.4530		498.0119		493.6440		488.1050		485.3387		482.0036		476.5077		474.9735		471.8101		468.6421		467.9139		467.6268		465.8033		463.2150		464.0587		460.0328		458.7077		
 0.780		424.2728		426.0939		428.5847		430.2978		431.7156		433.7631		435.1249		435.9119		438.7927		440.3605		442.1141		444.0208		444.5546		447.3564		449.0290		450.6755		452.0598		457.0377		458.7484		459.3283		462.5083		465.0479		467.3058		469.5091		472.2832		475.5982		477.3591		483.0122		484.4933		488.6062		493.8247		496.8943		502.7454		504.1548		511.6935		514.0894		520.6941		527.3785		535.1972		541.2076		547.4823		556.9225		566.5235		575.5033		586.6445		596.3602		610.2456		622.9216		636.7547		652.6256		668.5843		688.5581		704.0486		724.2815		738.7986		753.3188		760.9730		758.6134		748.8586		732.2432		709.7722		682.4500		654.6796		630.5079		606.7271		586.8998		568.6952		551.5477		539.9421		528.5860		520.0722		510.9334		503.0524		498.5373		494.0887		488.5656		485.7772		482.4162		476.9200		475.4247		472.1641		468.9743		468.2355		467.9206		466.0668		463.5377		464.3382		460.3041		459.0165		
 0.790		424.4757		426.2930		428.7816		430.4869		431.8933		433.9041		435.3288		436.1089		438.9766		440.5335		442.2924		444.2127		444.7213		447.5465		449.2318		450.8590		452.2521		457.2644		458.9128		459.5120		462.7012		465.2828		467.5036		469.7085		472.4731		475.7691		477.5098		483.2109		484.6426		488.7730		493.9740		497.0400		502.8611		504.3040		511.8110		514.2384		520.8481		527.4794		535.2042		541.1784		547.3434		556.7553		566.3097		575.2450		586.3528		595.9971		609.8443		622.4205		636.1842		652.0007		667.9430		687.8776		703.3226		723.5962		738.1643		752.7262		760.6367		758.6712		749.1579		733.0134		710.7441		683.6963		655.9613		631.8348		608.0420		588.0894		569.7046		552.5093		540.8093		529.3701		520.7975		511.5917		503.6519		499.0626		494.5334		489.0261		486.2157		482.8288		477.3324		475.8758		472.5180		469.3065		468.5571		468.2144		466.3303		463.8603		464.6177		460.5755		459.3253		
 0.800		424.6786		426.4922		428.9784		430.6760		432.0711		434.0451		435.5328		436.3059		439.1604		440.7066		442.4708		444.4045		444.8881		447.7365		449.4346		451.0425		452.4444		457.4911		459.0772		459.6958		462.8941		465.5176		467.7013		469.9080		472.6630		475.9401		477.6606		483.4096		484.7918		488.9397		494.1232		497.1858		502.9767		504.4532		511.9284		514.3874		521.0021		527.6100		535.2528		541.2401		547.3835		556.7636		566.2294		575.0731		586.1174		595.6340		609.4430		621.9195		635.6138		651.3758		667.3017		687.1972		702.5966		722.9108		737.5300		752.1337		760.3004		758.7290		749.4572		733.7836		711.7161		684.9263		657.2430		633.1555		609.3332		589.2789		570.7140		553.4709		541.6766		530.1542		521.5229		512.2501		504.2513		499.5880		494.9780		489.4867		486.6543		483.2414		477.7448		476.3269		472.8719		469.6386		468.8786		468.5082		466.5938		464.1829		464.8972		460.8469		459.6341		
 0.810		424.8815		426.6913		429.1752		430.8651		432.2489		434.1861		435.7368		436.5029		439.3443		440.8797		442.6492		444.5963		445.0549		447.9266		449.6374		451.2260		452.6366		457.7177		459.2416		459.8795		463.0871		465.7524		467.8991		470.1075		472.8528		476.1110		477.8114		483.6083		484.9411		489.1065		494.2725		497.3315		503.0923		504.6024		512.0459		514.5364		521.1561		527.7406		535.3014		541.3017		547.4236		556.7739		566.1951		574.9920		586.1019		595.5389		609.2230		621.5048		635.0433		650.7509		666.6603		686.5167		701.8706		722.2254		736.8957		751.5411		759.9640		758.7869		749.7564		734.5538		712.6881		686.1563		658.5248		634.4762		610.6107		590.4685		571.6986		554.4325		542.5439		530.9382		522.2482		512.9084		504.8507		500.1133		495.4227		489.9472		487.0928		483.6540		478.1572		476.7780		473.2259		469.9708		469.2002		468.8020		466.8573		464.5055		465.1767		461.1183		459.9429		
 0.820		425.0844		426.8905		429.3720		431.0542		432.4266		434.3271		435.9407		436.6999		439.5281		441.0528		442.8276		444.7882		445.2217		448.1167		449.8402		451.4095		452.8289		457.9444		459.4060		460.0632		463.2800		465.9873		468.0969		470.3069		473.0427		476.2819		477.9622		483.8069		485.0904		489.2733		494.4217		497.4773		503.2079		504.7516		512.1634		514.6854		521.3101		527.8712		535.3500		541.3634		547.4637		556.7842		566.1608		574.9108		586.0863		595.4744		609.1354		621.3741		634.8089		650.2857		666.0190		685.8363		701.1446		721.5400		736.2613		750.9485		759.6277		758.8447		750.0557		735.3240		713.6601		687.3863		659.8065		635.7968		611.8882		591.6535		572.6729		555.3941		543.4111		531.7150		522.9736		513.5668		505.4501		500.6386		495.8674		490.4077		487.5313		484.0666		478.5695		477.2291		473.5798		470.3030		469.5217		469.0958		467.1208		464.8281		465.4562		461.3897		460.2517		
 0.830		425.2874		427.0896		429.5689		431.2433		432.6044		434.4681		436.1447		436.8969		439.7120		441.2259		443.0060		444.9800		445.3885		448.3068		450.0431		451.5930		453.0212		458.1711		459.5704		460.2469		463.4729		466.2221		468.2947		470.5064		473.2325		476.4529		478.1129		484.0056		485.2397		489.4401		494.5710		497.6230		503.3235		504.9008		512.2809		514.8344		521.4641		528.0018		535.3987		541.4251		547.5038		556.7946		566.1265		574.8297		586.0708		595.4099		609.0478		621.2434		634.6370		650.0438		665.7107		685.2880		700.4186		720.8547		735.6270		750.3559		759.2913		758.9025		750.3549		736.0942		714.6321		688.6164		661.0882		637.1175		613.1658		592.8374		573.6472		556.3959		544.2972		532.4742		523.7020		514.2080		506.0495		501.1640		496.3121		490.8683		487.9699		484.4792		478.9819		477.6803		473.9338		470.6351		469.8433		469.3895		467.3843		465.1507		465.7357		461.6610		460.5605		
 0.840		425.4903		427.2888		429.7657		431.4324		432.7821		434.6091		436.3486		437.0939		439.8958		441.3989		443.1843		445.1719		445.5552		448.4969		450.2459		451.7765		453.2135		458.3978		459.7348		460.4306		463.6659		466.4569		468.4924		470.7059		473.4224		476.6238		478.2637		484.2043		485.3890		489.6069		494.7202		497.7688		503.4391		505.0501		512.3984		514.9834		521.6181		528.1324		535.4473		541.4868		547.5439		556.8049		566.0923		574.7486		586.0553		595.3454		608.9602		621.1127		634.4650		649.8019		665.4050		684.8639		699.9103		720.2080		734.9927		749.7634		758.9550		758.9604		750.6542		736.8645		715.6041		689.8464		662.3699		638.4382		614.4433		594.0213		574.6215		557.4017		545.2202		533.2334		524.4305		514.8401		506.6497		501.6752		496.7568		491.3293		488.4041		484.8919		479.3947		478.1294		474.2877		470.9673		470.1649		469.6833		467.6479		465.4734		466.0152		461.9324		460.8692		
 0.850		425.6932		427.4880		429.9625		431.6215		432.9599		434.7501		436.5526		437.2910		440.0796		441.5720		443.3627		445.3637		445.7220		448.6869		450.4487		451.9600		453.4057		458.6244		459.8992		460.6143		463.8588		466.6917		468.6902		470.9053		473.6123		476.7947		478.4145		484.4030		485.5382		489.7736		494.8694		497.9145		503.5547		505.1993		512.5159		515.1324		521.7721		528.2630		535.4959		541.5484		547.5840		556.8152		566.0580		574.6674		586.0398		595.2809		608.8726		620.9820		634.2931		649.5601		665.0993		684.4398		699.4124		719.6228		734.4189		749.1769		758.6187		759.0182		750.9534		737.6347		716.5761		691.0764		663.6516		639.7589		615.7208		595.2051		575.5959		558.4076		546.1432		533.9926		525.1589		515.4722		507.2862		502.1842		497.2221		491.7908		488.8288		485.3032		479.8498		478.5577		474.6416		471.3240		470.4864		469.9771		467.9144		465.7960		466.2329		462.2038		461.1747		
 0.860		425.8961		427.6871		430.1593		431.8107		433.1376		434.8911		436.7566		437.4880		440.2635		441.7451		443.5411		445.5556		445.8888		448.8770		450.6515		452.1435		453.5980		458.8511		460.0636		460.7980		464.0517		466.9266		468.8880		471.1048		473.8021		476.9657		478.5652		484.6016		485.6875		489.9404		495.0187		498.0603		503.6703		505.3485		512.6334		515.2814		521.9261		528.3936		535.5445		541.6101		547.6241		556.8255		566.0237		574.5863		586.0243		595.2164		608.7850		620.8514		634.1212		649.3182		664.7937		684.0158		698.9145		719.0376		733.8635		748.6531		758.2336		759.0760		751.2527		738.4049		717.5481		692.3064		664.9333		641.0796		616.9983		596.3890		576.5702		559.4135		547.0662		534.7518		525.8873		516.1043		507.9227		502.6932		497.6991		492.2524		489.2535		485.6737		480.3050		478.9861		475.0055		471.6993		470.8052		470.2691		468.1862		466.1124		466.4183		462.4878		461.4664		
 0.870		426.0990		427.8863		430.3561		431.9998		433.3154		435.0321		436.9605		437.6850		440.4473		441.9182		443.7195		445.7474		446.0556		449.0671		450.8543		452.3270		453.7903		459.0778		460.2280		460.9817		464.2446		467.1614		469.0858		471.3043		473.9920		477.1366		478.7160		484.8003		485.8368		490.1072		495.1679		498.2060		503.7859		505.4977		512.7509		515.4304		522.0800		528.5242		535.5931		541.6718		547.6642		556.8358		565.9894		574.5052		586.0088		595.1518		608.6974		620.7207		633.9492		649.0763		664.4880		683.5917		698.4165		718.4525		733.3082		748.1292		757.7654		758.9168		751.5519		739.1751		718.5200		693.5364		666.2150		642.4002		618.2758		597.5729		577.5445		560.4194		547.9892		535.5110		526.6157		516.7364		508.5592		503.2022		498.1761		492.7140		489.6782		486.0443		480.7601		479.4144		475.3727		472.0747		471.1205		470.5584		468.4581		466.4140		466.6036		462.7984		461.7581		
 0.880		426.3020		428.0854		430.5530		432.1889		433.4932		435.1731		437.1645		437.8820		440.6312		442.0913		443.8978		445.9393		446.2223		449.2572		451.0571		452.5105		453.9826		459.3045		460.3924		461.1654		464.4376		467.3962		469.2835		471.5038		474.1818		477.3076		478.8668		484.9990		485.9861		490.2740		495.3172		498.3518		503.9015		505.6469		512.8684		515.5794		522.2340		528.6548		535.6418		541.7335		547.7043		556.8461		565.9551		574.4240		585.9933		595.0873		608.6098		620.5900		633.7773		648.8344		664.1823		683.1676		697.9186		717.8673		732.7528		747.6054		757.2972		758.6065		751.6036		739.9453		719.4920		694.7664		667.4967		643.7209		619.5533		598.7567		578.5189		561.4253		548.9122		536.2702		527.3441		517.3685		509.1957		503.7112		498.6532		493.1756		490.1030		486.4148		481.2153		479.8427		475.7399		472.4500		471.4357		470.8477		468.7299		466.7156		466.7890		463.1091		462.0498		
 0.890		426.5049		428.2846		430.7498		432.3780		433.6709		435.3140		437.3685		438.0790		440.8150		442.2643		444.0762		446.1311		446.3891		449.4472		451.2599		452.6940		454.1748		459.5311		460.5568		461.3491		464.6305		467.6311		469.4813		471.7032		474.3717		477.4785		479.0176		485.1977		486.1354		490.4407		495.4664		498.4975		504.0171		505.7961		512.9859		515.7284		522.3880		528.7854		535.6904		541.7951		547.7444		556.8565		565.9209		574.3429		585.9778		595.0228		608.5223		620.4593		633.6054		648.5925		663.8766		682.7435		697.4207		717.2821		732.1975		747.0815		756.8290		758.2962		751.5946		740.2344		720.4243		695.9964		668.7784		645.0416		620.8309		599.9406		579.4932		562.4312		549.8352		537.0294		528.0725		518.0006		509.8322		504.2203		499.1302		493.6372		490.5277		486.7854		481.6704		480.2711		476.1071		472.8254		471.7510		471.1369		469.0018		467.0172		466.9743		463.4197		462.3415		
 0.900		426.7078		428.4837		430.9466		432.5671		433.8487		435.4550		437.5724		438.2760		440.9988		442.4374		444.2546		446.3230		446.5559		449.6373		451.4627		452.8775		454.3671		459.7578		460.7212		461.5329		464.8234		467.8659		469.6791		471.9027		474.5616		477.6494		479.1683		485.3964		486.2846		490.6075		495.6157		498.6433		504.1328		505.9453		513.1034		515.8773		522.5420		528.9160		535.7390		541.8568		547.7845		556.8668		565.8866		574.2618		585.9623		594.9583		608.4347		620.3287		633.4334		648.3507		663.5710		682.3195		696.9227		716.6969		731.6421		746.5576		756.3608		757.9858		751.5856		740.5150		721.0714		697.1081		670.0601		646.3623		622.1084		601.1245		580.4675		563.4371		550.7582		537.7886		528.8010		518.6327		510.4687		504.7293		499.6072		494.0988		490.9524		487.1559		482.1255		480.6994		476.4743		473.2007		472.0662		471.4262		469.2736		467.3189		467.1597		463.7303		462.6332		
 0.910		426.9107		428.6829		431.1434		432.7562		434.0264		435.5960		437.7764		438.4730		441.1827		442.6105		444.4330		446.5148		446.7227		449.8274		451.6656		453.0610		454.5594		459.9845		460.8856		461.7166		465.0164		468.1007		469.8769		472.1022		474.7514		477.8204		479.3191		485.5950		486.4339		490.7743		495.7649		498.7890		504.2484		506.0945		513.2209		516.0263		522.6960		529.0466		535.7876		541.9185		547.8246		556.8771		565.8523		574.1806		585.9468		594.8938		608.3471		620.1980		633.2615		648.1088		663.2653		681.8954		696.4248		716.1117		731.0868		746.0338		755.8926		757.6755		751.5765		740.7955		721.7185		697.9496		671.2224		647.6829		623.3859		602.3083		581.4419		564.4429		551.6812		538.5478		529.5294		519.2649		511.1053		505.2383		500.0842		494.5603		491.3771		487.5265		482.5807		481.1277		476.8415		473.5761		472.3815		471.7155		469.5455		467.6205		467.3450		464.0409		462.9250		
 0.920		427.1137		428.8821		431.3403		432.9453		434.2042		435.7370		437.9803		438.6700		441.3665		442.7836		444.6114		446.7066		446.8895		450.0175		451.8684		453.2445		454.7517		460.2112		461.0500		461.9003		465.2093		468.3355		470.0746		472.3016		474.9413		477.9913		479.4699		485.7937		486.5832		490.9411		495.9141		498.9348		504.3640		506.2437		513.3384		516.1753		522.8500		529.1772		535.8363		541.9802		547.8647		556.8874		565.8180		574.0995		585.9313		594.8293		608.2595		620.0673		633.0896		647.8669		662.9596		681.4713		695.9269		715.5265		730.5314		745.5099		755.4244		757.3652		751.5675		741.0760		722.3657		698.7911		672.2811		648.8484		624.6455		603.4922		582.4162		565.4488		552.6043		539.3070		530.2578		519.8970		511.7418		505.7473		500.5612		495.0219		491.8019		487.8970		483.0358		481.5560		477.2086		473.9514		472.6967		472.0048		469.8173		467.9221		467.5304		464.3515		463.2167		
 0.930		427.3166		429.0812		431.5371		433.1345		434.3819		435.8780		438.1843		438.8671		441.5504		442.9567		444.7897		446.8985		447.0562		450.2076		452.0712		453.4280		454.9439		460.4378		461.2144		462.0840		465.4022		468.5704		470.2724		472.5011		475.1311		478.1622		479.6206		485.9924		486.7325		491.1079		496.0634		499.0806		504.4796		506.3929		513.4559		516.3243		523.0040		529.3078		535.8849		542.0419		547.9048		556.8977		565.7837		574.0184		585.9158		594.7647		608.1719		619.9366		632.9176		647.6250		662.6540		681.0472		695.4289		714.9414		729.9761		744.9861		754.9562		757.0548		751.5585		741.3566		723.0128		699.6326		673.3398		649.9760		625.7862		604.6693		583.3905		566.4547		553.5273		540.0662		530.9862		520.5291		512.3783		506.2563		501.0382		495.4835		492.2266		488.2675		483.4910		481.9844		477.5758		474.3268		473.0120		472.2941		470.0892		468.2238		467.7157		464.6621		463.5084		
 0.940		427.5195		429.2804		431.7309		433.3258		434.5597		436.0190		438.3883		439.0607		441.7342		443.1326		444.9681		447.0903		447.2230		450.3976		452.2740		453.6149		455.1362		460.6645		461.3788		462.2677		465.5952		468.8052		470.4702		472.7006		475.3210		478.3332		479.7714		486.1911		486.8818		491.2746		496.2126		499.2263		504.5952		506.5421		513.5733		516.4733		523.1580		529.4384		535.9335		542.1035		547.9449		556.9080		565.7495		573.9372		585.9003		594.7002		608.0843		619.8060		632.7457		647.3831		662.3483		680.6232		694.9310		714.3562		729.4207		744.4622		754.4880		756.7445		751.5495		741.6371		723.6599		700.4742		674.3984		651.1036		626.9268		605.8400		584.5345		567.4796		554.4507		540.8255		531.7146		521.1612		513.0148		506.7653		501.5152		495.9451		492.6513		488.6381		483.9461		482.4127		477.9430		474.7021		473.3272		472.5833		470.3611		468.5254		467.9011		464.9727		463.8001		
 0.950		427.7224		429.4795		431.9243		433.5320		434.7375		436.1777		438.5922		439.2435		441.9193		443.3216		445.1377		447.2898		447.3898		450.5877		452.4540		453.8229		455.3398		460.8912		461.5432		462.4433		465.7897		469.0400		470.6627		472.9000		475.5109		478.5041		479.9222		486.3897		487.0310		491.4414		496.3619		499.3721		504.7108		506.6913		513.6908		516.6223		523.3120		529.5690		535.9821		542.1652		547.9850		556.9184		565.7152		573.8561		585.8848		594.6357		607.9967		619.6753		632.5738		647.1412		662.0426		680.1991		694.4331		713.7710		728.8654		743.9384		754.0198		756.4342		751.5404		741.9177		724.3070		701.3157		675.4571		652.2311		628.0675		607.0107		585.6852		568.5261		555.4124		541.6787		532.4694		521.7933		513.6513		507.2744		501.9922		496.4067		493.0760		489.0086		484.4013		482.8410		478.3102		475.0775		473.6425		472.8726		470.6329		468.8270		468.0864		465.2833		464.0918		
 0.960		427.9414		429.6810		432.1177		433.7381		434.9355		436.3375		438.7962		439.4263		442.1044		443.5106		445.3066		447.4897		447.5562		450.7778		452.6213		454.0309		455.5629		461.1179		461.7076		462.6149		465.9962		469.2749		470.8300		473.0995		475.7007		478.6656		480.1216		486.5859		487.1803		491.6043		496.5111		499.5178		504.8264		506.8406		513.8083		516.7713		523.4660		529.6996		536.0308		542.2269		548.0251		556.9287		565.6809		573.7749		585.8692		594.5712		607.9091		619.5446		632.4018		646.8994		661.7369		679.7750		693.9351		713.1858		728.3100		743.4145		753.5516		756.1239		751.5314		742.1982		724.9542		702.1572		676.5158		653.3587		629.2082		608.1814		586.8359		569.5726		556.3741		542.5924		533.3056		522.6079		514.3397		507.8435		502.4918		496.8683		493.5007		489.3792		484.8564		483.2694		478.6774		475.4528		473.9577		473.1619		470.9048		469.1287		468.2718		465.5939		464.3835		
 0.970		428.1607		429.8830		432.3110		433.9443		435.1342		436.4973		439.0043		439.6091		442.2895		443.6996		445.4754		447.6895		447.7169		450.9654		452.7886		454.2390		455.7860		461.3475		461.8882		462.7866		466.2028		469.5041		470.9973		473.2991		475.8906		478.8218		480.3295		486.7750		487.3296		491.7647		496.6604		499.6616		504.9771		506.9746		513.9258		516.9203		523.6200		529.8302		536.0794		542.2886		548.0652		556.9390		565.6466		573.6938		585.8537		594.5067		607.8216		619.4139		632.2299		646.6575		661.4313		679.3509		693.4372		712.6006		727.7547		742.8907		753.0834		755.8135		751.5224		742.4787		725.6013		702.9987		677.5744		654.4863		630.3489		609.3522		587.9867		570.6191		557.3358		543.5062		534.1419		523.4367		515.0581		508.5111		503.1454		497.4828		494.0085		489.8480		485.3341		483.7064		479.0525		475.8282		474.2730		473.4512		471.1766		469.4303		468.4571		465.9045		464.6752		
 0.980		428.3800		430.0851		432.5044		434.1504		435.3329		436.6572		439.2143		439.7919		442.4746		443.8886		445.6442		447.8893		447.8776		451.1527		452.9559		454.4470		456.0092		461.5779		462.0793		462.9583		466.4094		469.7211		471.1645		473.5027		476.0784		478.9781		480.5373		486.9641		487.4838		491.9251		496.8096		499.8028		505.1304		507.1072		514.0433		517.0693		523.7740		529.9222		536.1240		542.3502		548.1250		556.9493		565.6123		573.6177		585.8382		594.4422		607.7340		619.2833		632.0580		646.4156		661.1256		678.9269		692.9392		712.0154		727.1993		742.3668		752.6152		755.5032		751.5134		742.7593		726.2484		703.8402		678.6331		655.6139		631.4896		610.5229		589.1374		571.6656		558.2975		544.4199		534.9782		524.2654		515.7766		509.1787		503.7989		498.1116		494.5512		490.4029		485.8504		484.1747		479.5270		476.2921		474.6885		473.8503		471.5299		469.7828		468.7262		466.2347		464.9944		
 0.990		428.5993		430.2871		432.6978		434.3566		435.5317		436.8170		439.4244		439.9747		442.6598		444.0776		445.8131		448.0892		448.0383		451.3400		453.1231		454.6550		456.2323		461.8083		462.2703		463.1299		466.6160		469.9382		471.3318		473.7064		476.2648		479.1343		480.7451		487.1532		487.6649		492.0855		496.9725		499.9440		505.2837		507.2398		514.1466		517.2207		523.9279		530.0060		536.1641		542.4119		548.1870		556.9596		565.5778		573.5595		585.8267		594.3776		607.6464		619.1526		631.8860		646.1737		660.8199		678.5028		692.4413		711.4303		726.6440		741.8429		752.1470		755.1929		751.5043		743.0398		726.8955		704.6817		679.6917		656.7415		632.6302		611.6936		590.2881		572.7121		559.2592		545.3336		535.8145		525.0941		516.4950		509.8463		504.4524		498.7405		495.0939		490.9578		486.3667		484.6429		480.0015		476.7603		475.1232		474.2892		471.9290		470.1771		469.0916		466.5954		465.3724		
 1.000		428.8185		430.4891		432.8912		434.5627		435.7304		436.9768		439.6344		440.1575		442.8449		444.2666		445.9819		448.2890		448.1990		451.5273		453.2904		454.8630		456.4554		462.0386		462.4614		463.3016		466.8225		470.1553		471.4991		473.9101		476.4512		479.2906		480.9530		487.3423		487.8459		492.2460		497.1364		500.0852		505.4369		507.3724		514.2455		517.3760		524.0759		530.0898		536.2043		542.4794		548.2490		556.9665		565.5432		573.5013		585.8182		594.3131		607.5883		619.0219		631.7141		645.9288		660.5143		678.0787		691.9434		710.8451		726.0886		741.3191		751.6788		754.8825		751.4953		743.3204		727.5427		705.5232		680.7504		657.8690		633.7709		612.8643		591.4388		573.7586		560.2209		546.2474		536.6508		525.9228		517.2134		510.5139		505.1060		499.3694		495.6365		491.5126		486.8830		485.1111		480.4760		477.2285		475.5580		474.7280		472.3281		470.5713		469.4571		466.9561		465.7503		
 1.010		429.0378		430.6911		433.0845		434.7689		435.9292		437.1367		439.8444		440.3403		443.0300		444.4556		446.1507		448.4889		448.3596		451.7147		453.4577		455.0711		456.6785		462.2690		462.6525		463.4733		467.0291		470.3723		471.6664		474.1137		476.6376		479.4468		481.1608		487.5314		488.0270		492.4064		497.3004		500.2263		505.5902		507.5050		514.3444		517.5313		524.2229		530.1736		536.2445		542.5512		548.3110		556.9677		565.5086		573.4431		585.8097		594.2486		607.5422		618.8912		631.5422		645.6676		660.2047		677.6448		691.4454		710.2599		725.5333		740.7952		751.2106		754.5722		751.4863		743.6009		728.1898		706.3648		681.8091		658.9966		634.9116		614.0350		592.5896		574.8051		561.1826		547.1611		537.4871		526.7515		517.9319		511.1815		505.7595		499.9982		496.1792		492.0675		487.3992		485.5794		480.9505		477.6967		475.9927		475.1669		472.7272		470.9656		469.8226		467.3169		466.1282		
 1.020		429.2571		430.8931		433.2779		434.9750		436.1279		437.2965		440.0544		440.5231		443.2151		444.6446		446.3195		448.6887		448.5203		451.9020		453.6250		455.2791		456.9016		462.4994		462.8436		463.6450		467.2357		470.5894		471.8337		474.3174		476.8239		479.6031		481.3687		487.7205		488.2080		492.5668		497.4643		500.3675		505.7435		507.6376		514.4432		517.6866		524.3700		530.2574		536.2847		542.6231		548.3730		556.9690		565.4740		573.3849		585.8013		594.2157		607.4960		618.7597		631.3702		645.4064		659.8664		677.1669		690.9355		709.6747		724.9779		740.2714		750.7425		754.2619		751.4773		743.8814		728.8369		707.2063		682.8677		660.1242		636.0523		615.2057		593.7403		575.8516		562.1443		548.0748		538.3234		527.5802		518.6503		511.8492		506.4130		500.6271		496.7218		492.6223		487.9155		486.0476		481.4250		478.1649		476.4274		475.6058		473.1263		471.3598		470.1880		467.6776		466.5062		
 1.030		429.4764		431.0952		433.4713		435.1812		436.3266		437.4563		440.2645		440.7059		443.4002		444.8336		446.4884		448.8885		448.6810		452.0893		453.7923		455.4871		457.1248		462.7297		463.0346		463.8166		467.4422		470.8065		472.0010		474.5211		477.0103		479.7593		481.5765		487.9096		488.3891		492.7272		497.6283		500.5087		505.8967		507.7702		514.5421		517.8418		524.5170		530.3412		536.3248		542.6950		548.4350		556.9702		565.4394		573.3268		585.7928		594.1951		607.4499		618.6144		631.1983		645.1452		659.5281		676.6891		690.4234		709.0955		724.4179		739.7475		750.2743		753.9515		751.4683		744.1620		729.4841		708.0478		683.9264		661.2518		637.1929		616.3764		594.8910		576.8981		563.1060		548.9885		539.1596		528.4090		519.3687		512.5168		507.0665		501.2560		497.2645		493.1772		488.4318		486.5158		481.8995		478.6331		476.8621		476.0447		473.5254		471.7541		470.5535		468.0383		466.8841		
 1.040		429.6957		431.2972		433.6647		435.3873		436.5254		437.6162		440.4745		440.8887		443.5853		445.0226		446.6572		449.0884		448.8417		452.2766		453.9596		455.6952		457.3479		462.9601		463.2257		463.9883		467.6488		471.0235		472.1682		474.7248		477.1967		479.9156		481.7843		488.0987		488.5701		492.8877		497.7922		500.6499		506.0500		507.9028		514.6410		517.9971		524.6641		530.4250		536.3650		542.7669		548.4970		556.9714		565.4048		573.2686		585.7843		594.1745		607.4037		618.4691		631.0295		644.8840		659.1898		676.2112		689.9112		708.5185		723.8379		739.2378		749.8066		753.6412		751.4592		744.4425		730.1312		708.8893		684.9850		662.3793		638.3336		617.5471		596.0417		577.9446		564.0677		549.9023		539.9959		529.2377		520.0872		513.1844		507.7201		501.8848		497.8072		493.7321		488.9481		486.9841		482.3740		479.1013		477.2969		476.4835		473.9246		472.1484		470.9189		468.3991		467.2620		
 1.050		429.9149		431.4992		433.8580		435.5935		436.7241		437.7760		440.6845		441.0715		443.7705		445.2116		446.8260		449.2882		449.0024		452.4639		454.1268		455.9032		457.5710		463.1905		463.4168		464.1600		467.8554		471.2406		472.3355		474.9284		477.3831		480.0718		481.9922		488.2878		488.7512		493.0481		497.9562		500.7911		506.2033		508.0354		514.7399		518.1524		524.8111		530.5088		536.4052		542.8388		548.5589		556.9727		565.3702		573.2104		585.7758		594.1539		607.3575		618.3239		630.8727		644.6228		658.8515		675.7334		689.3990		707.9415		723.2578		738.7284		749.3626		753.3416		751.4502		744.7231		730.7783		709.7308		686.0437		663.5069		639.4743		618.7179		597.1924		578.9911		565.0294		550.8160		540.8322		530.0664		520.8056		513.8520		508.3736		502.5137		498.3498		494.2869		489.4643		487.4523		482.8485		479.5695		477.7316		476.9224		474.3237		472.5426		471.2844		468.7598		467.6399		
 1.060		430.1342		431.7012		434.0514		435.7996		436.9229		437.9358		440.8945		441.2543		443.9556		445.4006		446.9949		449.4880		449.1631		452.6513		454.2941		456.1112		457.7941		463.4208		463.6079		464.3316		468.0620		471.4577		472.5028		475.1321		477.5695		480.2280		482.2000		488.4769		488.9322		493.2085		498.1201		500.9323		506.3565		508.1680		514.8387		518.3076		524.9582		530.5926		536.4454		542.9106		548.6209		556.9739		565.3356		573.1522		585.7674		594.1333		607.3114		618.1786		630.7158		644.3616		658.5132		675.2555		688.8869		707.3646		722.6778		738.2190		748.9187		753.1034		751.4879		745.0240		731.4254		710.5723		687.1024		664.6345		640.6150		619.8886		598.3432		580.0376		565.9912		551.7297		541.6685		530.8951		521.5240		514.5196		509.0271		503.1426		498.8925		494.8418		489.9806		487.9205		483.3230		480.0377		478.1663		477.3613		474.7228		472.9369		471.6499		469.1206		468.0179		
 1.070		430.3535		431.9032		434.2448		436.0058		437.1216		438.0956		441.1046		441.4371		444.1407		445.5896		447.1637		449.6879		449.3238		452.8386		454.4614		456.3193		458.0172		463.6512		463.7989		464.5033		468.2685		471.6747		472.6701		475.3358		477.7559		480.3843		482.4079		488.6660		489.1132		493.3689		498.2841		501.0735		506.5098		508.3006		514.9376		518.4629		525.1052		530.6764		536.4855		542.9825		548.6829		556.9752		565.3010		573.0940		585.7589		594.1127		607.2652		618.0334		630.5589		644.1004		658.1749		674.7777		688.3747		706.7876		722.0977		737.7096		748.4747		752.8652		751.5427		745.3945		732.0726		711.4138		688.1610		665.7621		641.7556		621.0593		599.4939		581.0841		566.9529		552.6434		542.5048		531.7238		522.2425		515.1872		509.6807		503.7714		499.4352		495.3966		490.4969		488.3888		483.7975		480.5059		478.6010		477.8001		475.1219		473.3311		472.0153		469.4813		468.3958		
 1.080		430.5728		432.1052		434.4382		436.2119		437.3203		438.2555		441.3146		441.6198		444.3258		445.7786		447.3325		449.8877		449.4845		453.0259		454.6287		456.5273		458.2403		463.8815		463.9900		464.6750		468.4751		471.8918		472.8374		475.5394		477.9423		480.5405		482.6157		488.8550		489.2943		493.5293		498.4480		501.2146		506.6630		508.4332		515.0365		518.6182		525.2523		530.7601		536.5257		543.0544		548.7449		556.9764		565.2664		573.0358		585.7504		594.0921		607.2191		617.8881		630.4020		643.8392		657.8366		674.2999		687.8625		706.2107		721.5177		737.2002		748.0308		752.6270		751.5974		745.7649		732.7768		712.2553		689.2197		666.8897		642.8963		622.2300		600.6446		582.1306		567.9146		553.5572		543.3411		532.5525		522.9609		515.8549		510.3342		504.4003		499.9778		495.9515		491.0132		488.8570		484.2720		480.9741		479.0357		478.2390		475.5210		473.7254		472.3808		469.8420		468.7737		
 1.090		430.7921		432.3073		434.6315		436.4181		437.5191		438.4153		441.5246		441.8026		444.5109		445.9676		447.5013		450.0876		449.6452		453.2132		454.7960		456.7353		458.4635		464.1119		464.1811		464.8466		468.6817		472.1088		473.0047		475.7431		478.1287		480.6968		482.8236		489.0441		489.4753		493.6898		498.6120		501.3558		506.8163		508.5658		515.1354		518.7735		525.3993		530.8439		536.5659		543.1263		548.8069		556.9777		565.2318		572.9776		585.7419		594.0716		607.1729		617.7429		630.2451		643.5780		657.4984		673.8220		687.3504		705.6337		720.9377		736.6908		747.5868		752.3888		751.6522		746.1353		733.4988		713.1403		690.2784		668.0172		644.0370		623.4007		601.7953		583.1771		568.8763		554.4709		544.1774		533.3813		523.6793		516.5225		510.9877		505.0292		500.5205		496.5063		491.5294		489.3252		484.7465		481.4423		479.4705		478.6779		475.9201		474.1196		472.7462		470.2028		469.1516		
 1.100		431.0113		432.5093		434.8249		436.6243		437.7178		438.5751		441.7346		441.9854		444.6960		446.1566		447.6702		450.2874		449.8059		453.4005		454.9632		456.9433		458.6866		464.3423		464.3721		465.0183		468.8883		472.3259		473.1719		475.9468		478.3151		480.8530		483.0314		489.2332		489.6564		493.8502		498.7759		501.4970		506.9696		508.6984		515.2342		518.9287		525.5464		530.9277		536.6061		543.1982		548.8689		556.9789		565.1972		572.9194		585.7335		594.0510		607.1005		617.5976		630.0882		643.3168		657.1601		673.3442		686.8382		705.0567		720.3576		736.1813		747.1429		752.1506		751.7069		746.5057		734.2209		714.0254		691.3523		669.1408		645.1777		624.5714		602.9461		584.2236		569.8380		555.3846		545.0136		534.2100		524.3978		517.1901		511.6413		505.6581		501.0631		497.0612		492.0457		489.7935		485.2211		481.9104		479.9052		479.1168		476.3193		474.5139		473.1117		470.5635		469.5296		
 1.110		431.2306		432.7113		435.0183		436.8304		437.9165		438.7350		441.9447		442.1682		444.8811		446.3456		447.8390		450.4872		449.9665		453.5879		455.1305		457.1514		458.9097		464.5726		464.5632		465.1900		469.0948		472.5430		473.3392		476.1505		478.5015		481.0093		483.2392		489.4223		489.8374		494.0106		498.9399		501.6382		507.1228		508.8310		515.3331		519.0840		525.6934		531.0115		536.6462		543.2700		548.9309		556.9801		565.1626		572.8612		585.7250		594.0304		606.9915		617.4524		629.9314		643.0557		656.8218		672.8663		686.3260		704.4798		719.7776		735.6719		746.6989		751.9124		751.7617		746.8761		734.9430		714.9106		692.4270		670.2628		646.3183		625.7353		604.0968		585.2701		570.7997		556.2984		545.8499		535.0387		525.1162		517.8577		512.2948		506.2869		501.6058		497.6161		492.5620		490.2617		485.6956		482.3786		480.3399		479.5556		476.7184		474.9081		473.4772		470.9242		469.9075		
 1.120		431.4499		432.9133		435.2117		437.0366		438.1153		438.8948		442.1547		442.3510		445.0663		446.5346		448.0078		450.6871		450.1272		453.7752		455.2978		457.3594		459.1328		464.8030		464.7543		465.3616		469.3014		472.7600		473.5065		476.3541		478.6878		481.1655		483.4471		489.6114		490.0185		494.1710		499.1038		501.7794		507.2761		508.9636		515.4320		519.2393		525.8405		531.0953		536.6864		543.3419		548.9929		556.9814		565.1280		572.8030		585.7165		594.0098		606.8826		617.3071		629.7745		642.7945		656.4835		672.3885		685.8139		703.9028		719.1975		735.1625		746.2549		751.6742		751.8164		747.2466		735.6651		715.7958		693.5017		671.3848		647.4590		626.8642		605.2307		586.3221		571.7614		557.2121		546.6862		535.8674		525.8346		518.5253		512.9483		506.9158		502.1485		498.1709		493.0783		490.7299		486.1701		482.8468		480.7746		479.9945		477.1175		475.3024		473.8426		471.2850		470.2854		
 1.130		431.6692		433.1153		435.4050		437.2427		438.3140		439.0546		442.3647		442.5338		445.2514		446.7236		448.1766		450.8869		450.2879		453.9625		455.4651		457.5674		459.3559		465.0334		464.9454		465.5333		469.5080		472.9771		473.6738		476.5578		478.8742		481.3218		483.6549		489.8005		490.1995		494.3315		499.2678		501.9206		507.4294		509.0962		515.5309		519.3946		525.9876		531.1791		536.7266		543.4138		549.0549		556.9826		565.0934		572.7448		585.7081		593.9892		606.7737		617.1619		629.6176		642.5333		656.1452		671.9106		685.3017		703.3258		718.6175		734.6531		745.8110		751.4360		751.8712		747.6170		736.3871		716.6810		694.5763		672.5068		648.5946		627.9931		606.3509		587.3914		572.7239		558.1258		547.5225		536.6961		526.5531		519.1929		513.6018		507.5447		502.6911		498.7258		493.5945		491.1982		486.6446		483.3150		481.2093		480.4334		477.5166		475.6967		474.2081		471.6457		470.6634		
 1.140		431.8885		433.3174		435.5984		437.4489		438.5128		439.2145		442.5747		442.7166		445.4365		446.9126		448.3455		451.0867		450.4486		454.1498		455.6324		457.7755		459.5791		465.2637		465.1364		465.7050		469.7146		473.1942		473.8411		476.7615		479.0606		481.4780		483.8628		489.9896		490.3806		494.4919		499.4317		502.0618		507.5826		509.2288		515.6297		519.5498		526.1346		531.2629		536.7668		543.4857		549.1169		556.9839		565.0587		572.6866		585.6996		593.9686		606.6648		617.0166		629.4607		642.2721		655.8069		671.4328		684.7895		702.7489		718.0374		734.1437		745.3670		751.1978		751.9259		747.9874		737.1092		717.5662		695.6510		673.6289		649.7254		629.1221		607.4710		588.4606		573.6864		559.0395		548.3588		537.5271		527.2641		519.8606		514.2554		508.1735		503.2338		499.2806		494.1108		491.6664		487.1191		483.7832		481.6441		480.8723		477.9157		476.0909		474.5736		472.0064		471.0413		
 1.150		     NaN		     NaN		     NaN		438.8911		440.3509		442.9430		443.6577		444.9105		446.1322		448.2980		449.6270		450.9302		450.9131		453.1479		455.7997		457.9835		459.8022		465.4941		465.3275		465.8766		469.9211		473.4112		474.0084		476.9651		479.2470		481.6343		484.0706		490.1787		490.5616		494.6523		499.5957		502.2029		507.7359		509.3614		515.7286		519.7051		526.2817		531.3467		536.8069		543.5576		549.1789		556.9851		565.0241		572.6284		585.6911		593.9480		606.5559		616.8713		629.3038		642.0109		655.4686		670.9550		684.2773		702.1719		717.4574		733.6343		744.9231		750.9596		751.9807		748.3578		737.8313		718.4513		696.7257		674.7509		650.8563		630.2510		608.5912		589.5298		574.6489		559.9536		549.1951		538.3632		527.9630		520.5311		514.8962		508.7996		503.7765		499.8355		494.6271		492.1346		487.5936		484.2514		482.0788		481.3111		478.3148		476.4852		474.9390		472.3672		471.4192		
 1.160		     NaN		     NaN		     NaN		     NaN		     NaN		     NaN		446.8074		447.7755		451.0991		452.6997		453.1428		455.4779		456.2641		458.2901		459.4621		460.7618		461.7652		464.4722		465.8200		471.8715		470.2951		473.5178		477.4759		478.9348		480.1645		481.7905		484.2784		490.3678		490.7427		494.8127		499.7596		502.3441		507.8892		509.4940		515.8275		519.8604		526.4287		531.4305		536.8471		543.6294		549.2409		556.9863		564.9895		572.5702		585.6826		593.9275		606.4470		616.7261		629.1470		641.7497		655.1303		670.4771		683.7652		701.5949		716.8773		733.1249		744.4791		750.7214		752.0354		748.7282		738.5534		719.3365		697.8004		675.8729		651.9872		631.3799		609.7114		590.5991		575.6114		560.8688		550.0366		539.1993		528.6619		521.2025		515.5313		509.4049		504.3191		500.3707		495.1434		492.6029		488.0728		484.7196		482.5135		481.7499		478.7140		476.8794		475.3045		472.7279		471.7971		
 1.170		     NaN		     NaN		     NaN		     NaN		     NaN		     NaN		     NaN		     NaN		     NaN		     NaN		455.7529		456.7976		461.2221		462.3285		463.3332		464.6175		467.0508		467.9011		470.4977		470.5086		473.2156		474.6803		481.1416		480.8286		484.5681		488.8445		490.3810		491.6107		493.9811		499.2250		500.3908		503.7213		508.2580		510.7805		515.9263		520.0157		526.5758		531.5143		536.8873		543.7013		549.3029		556.9876		564.9549		572.5120		585.6742		593.9069		606.3381		616.5808		628.9901		641.4885		654.7920		669.9993		683.2530		701.0180		716.2973		732.6155		744.0352		750.4832		752.0902		749.0987		739.2754		720.2217		698.8751		676.9949		653.1180		632.5088		610.8315		591.6683		576.5739		561.7841		550.8785		540.0354		529.3607		521.8740		516.1664		510.0102		504.8656		500.9029		495.6633		493.0711		488.5544		485.1878		482.9328		482.1876		479.1131		477.2732		475.6660		473.0887		472.1751		
 1.180		     NaN		     NaN		     NaN		     NaN		     NaN		     NaN		     NaN		     NaN		     NaN		     NaN		     NaN		     NaN		     NaN		     NaN		464.6984		466.0618		471.3452		471.8813		473.9457		475.2212		477.2425		478.5033		478.5287		481.9590		483.5406		490.3004		491.3621		495.6656		500.6373		501.8272		503.1869		505.2002		509.8923		512.5576		517.1976		524.4449		526.1133		531.2396		537.2383		543.8118		549.3649		556.9888		564.9203		572.4538		585.6657		593.8863		606.2292		616.4356		628.8332		641.2273		654.4537		669.5214		682.7408		700.4410		715.7173		732.1060		743.5912		750.2450		752.1449		749.4691		739.9975		721.1069		699.9498		678.1169		654.2489		633.6377		611.9517		592.7375		577.5364		562.6994		551.7205		540.8715		530.0596		522.5454		516.8015		510.6155		505.4169		501.4351		496.1994		493.5345		489.0359		485.6572		483.3519		482.6254		479.5122		477.6666		476.0184		473.4494		472.5530		
 1.190		     NaN		     NaN		     NaN		     NaN		     NaN		     NaN		     NaN		     NaN		     NaN		     NaN		     NaN		     NaN		     NaN		     NaN		     NaN		     NaN		     NaN		466.6307		473.6091		478.0709		480.9993		481.7559		483.1029		485.8092		487.0495		487.4850		490.7024		492.4009		499.4591		501.8956		506.7630		512.0437		513.2734		515.0342		518.5194		522.1912		528.3181		535.0189		536.2678		542.6109		549.2331		556.2989		564.3974		572.8678		585.6572		593.8657		606.1203		616.2903		628.6763		640.9661		654.1154		669.0436		682.2287		699.8640		715.1372		731.5966		743.1473		750.0068		752.1997		749.8395		740.7196		721.9921		701.0245		679.2389		655.3797		634.7666		613.0719		593.8067		578.4989		563.6146		552.5624		541.7076		530.7584		523.2168		517.4366		511.2209		505.9682		501.9673		496.7356		493.9918		489.5175		486.1278		483.7710		483.0632		479.9467		478.0601		476.3708		473.8185		472.9059		
 1.200		     NaN		     NaN		     NaN		     NaN		     NaN		     NaN		     NaN		     NaN		     NaN		     NaN		     NaN		     NaN		     NaN		     NaN		     NaN		     NaN		     NaN		     NaN		     NaN		     NaN		     NaN		480.9275		482.5085		489.6244		490.6216		492.4135		494.6432		495.6115		497.3978		499.4458		501.2681		508.3825		512.4291		519.0245		523.4899		524.7196		526.8815		533.7511		535.1960		541.9065		549.9861		553.3312		560.9880		568.7861		579.6573		589.2299		604.4591		615.9203		628.5194		640.7049		653.7771		668.5657		681.7165		699.2871		714.5572		731.0872		742.7033		749.7686		752.2544		750.2099		741.4417		722.8773		702.0992		680.3609		656.5106		635.8955		614.1921		594.8760		579.4614		564.5299		553.4044		542.5437		531.4573		523.8883		518.0717		511.8262		506.5194		502.4995		497.2717		494.4492		489.9991		486.5984		484.1902		483.5010		480.3841		478.4535		476.7233		474.1888		473.2542		
 1.210		     NaN		     NaN		     NaN		     NaN		     NaN		     NaN		     NaN		     NaN		     NaN		     NaN		     NaN		     NaN		     NaN		     NaN		     NaN		     NaN		     NaN		     NaN		     NaN		     NaN		     NaN		     NaN		     NaN		     NaN		     NaN		490.4875		491.7727		499.6700		500.3104		501.5882		504.6628		506.2368		508.1892		     NaN		517.0781		522.9626		530.5108		534.9361		536.1658		538.1167		544.4184		552.9148		561.2003		564.2999		571.8369		581.2732		     NaN		     NaN		623.1764		638.2980		653.4388		668.0879		681.2043		698.7101		713.9771		730.5778		742.2593		749.5304		752.3092		750.5803		742.1637		723.7624		703.1739		681.4829		657.6414		637.0244		615.3122		595.9452		580.4239		565.4452		554.2464		543.3798		532.1562		524.5597		518.7068		512.4315		507.0707		503.0316		497.8079		494.9065		490.4807		487.0690		484.6093		483.9388		480.8214		478.8470		477.0757		474.5590		473.6025		
 1.220		     NaN		     NaN		     NaN		     NaN		     NaN		     NaN		     NaN		     NaN		     NaN		     NaN		     NaN		     NaN		     NaN		     NaN		     NaN		     NaN		     NaN		     NaN		     NaN		     NaN		     NaN		     NaN		     NaN		     NaN		     NaN		     NaN		     NaN		     NaN		     NaN		499.4330		504.7755		509.2988		510.8813		513.3952		514.6282		516.8534		     NaN		     NaN		533.4961		541.7166		546.3823		547.7543		553.2635		557.9037		566.6894		575.4734		     NaN		     NaN		     NaN		     NaN		     NaN		     NaN		680.8556		698.1331		713.3971		730.0684		741.8154		749.2922		752.3639		750.9508		742.8858		724.6476		704.2486		682.6049		658.7723		638.1533		616.4324		597.0144		581.3864		566.3604		555.0883		544.2159		532.8550		525.2312		519.3418		513.0368		507.6220		503.5638		498.3440		495.3639		490.9623		487.5396		485.0284		484.3765		481.2588		479.2404		477.4281		474.9293		473.9508		
 1.230		     NaN		     NaN		     NaN		     NaN		     NaN		     NaN		     NaN		     NaN		     NaN		     NaN		     NaN		     NaN		     NaN		     NaN		     NaN		     NaN		     NaN		     NaN		     NaN		     NaN		     NaN		     NaN		     NaN		     NaN		     NaN		     NaN		     NaN		     NaN		     NaN		     NaN		     NaN		     NaN		     NaN		508.3272		518.0267		518.8939		520.2273		523.3220		     NaN		     NaN		     NaN		544.0296		552.9223		557.8285		559.6015		568.2771		576.8209		588.1821		     NaN		     NaN		     NaN		     NaN		     NaN		     NaN		712.8170		729.5590		741.3714		749.0540		752.4187		751.3212		743.6079		725.5328		705.3233		683.7269		659.9032		639.2822		617.5526		598.0837		582.3489		567.2757		555.9303		545.0520		533.5539		525.9026		519.9769		513.6422		508.1733		504.0960		498.8802		495.8212		491.4439		488.0102		485.4476		484.8143		481.6962		479.6339		477.7806		475.2995		474.2991		
 1.240		     NaN		     NaN		     NaN		     NaN		     NaN		     NaN		     NaN		     NaN		     NaN		     NaN		     NaN		     NaN		     NaN		     NaN		     NaN		     NaN		     NaN		     NaN		     NaN		     NaN		     NaN		     NaN		     NaN		     NaN		     NaN		     NaN		     NaN		     NaN		     NaN		     NaN		     NaN		     NaN		     NaN		     NaN		     NaN		     NaN		513.1521		517.4836		527.9696		529.3491		532.1514		     NaN		     NaN		     NaN		554.5631		564.1280		569.2747		     NaN		     NaN		592.9344		     NaN		     NaN		     NaN		     NaN		     NaN		     NaN		740.9275		748.8158		752.4734		751.6916		744.3300		726.4180		706.3980		684.8490		661.0340		640.4112		618.6727		599.1529		583.3114		568.1910		556.7722		545.8881		534.2527		526.5740		520.6120		514.2475		508.7245		504.6282		499.4164		496.2786		491.9255		488.4808		485.8667		485.2521		482.1336		480.0273		478.1330		475.6697		474.6473		
 1.250		     NaN		     NaN		     NaN		     NaN		     NaN		     NaN		     NaN		     NaN		     NaN		     NaN		     NaN		     NaN		     NaN		     NaN		     NaN		     NaN		     NaN		     NaN		     NaN		     NaN		     NaN		     NaN		     NaN		     NaN		     NaN		     NaN		     NaN		     NaN		     NaN		     NaN		     NaN		     NaN		     NaN		     NaN		     NaN		     NaN		     NaN		     NaN		     NaN		     NaN		525.2221		531.4800		537.5624		539.1844		     NaN		     NaN		     NaN		565.0425		575.3337		     NaN		     NaN		     NaN		     NaN		     NaN		     NaN		     NaN		     NaN		741.5103		752.5282		752.0620		745.0520		727.3032		707.4727		685.9710		662.1649		641.5401		619.7929		600.2221		584.2739		569.1062		557.6142		546.7242		534.9516		527.2455		521.2471		514.8528		509.2758		505.1604		499.9525		496.7359		492.4070		488.9514		486.2858		485.6899		482.5710		480.4207		478.4855		476.0400		474.9956		
 1.260		     NaN		     NaN		     NaN		     NaN		     NaN		     NaN		     NaN		     NaN		     NaN		     NaN		     NaN		     NaN		     NaN		     NaN		     NaN		     NaN		     NaN		     NaN		     NaN		     NaN		     NaN		     NaN		     NaN		     NaN		     NaN		     NaN		     NaN		     NaN		     NaN		     NaN		     NaN		     NaN		     NaN		     NaN		     NaN		     NaN		     NaN		     NaN		     NaN		     NaN		     NaN		     NaN		     NaN		     NaN		     NaN		546.4289		547.8168		     NaN		     NaN		     NaN		     NaN		     NaN		     NaN		     NaN		     NaN		     NaN		     NaN		     NaN		     NaN		752.4324		745.7741		728.1883		708.5474		687.0930		663.2957		642.6690		620.9131		601.2914		585.2364		570.0215		558.4562		547.5603		535.6505		527.9169		521.8822		515.4581		509.8271		505.6926		500.4887		497.1933		492.8886		489.4220		486.7050		486.1277		483.0083		480.8142		478.8379		476.4102		475.3439		
 1.270		     NaN		     NaN		     NaN		     NaN		     NaN		     NaN		     NaN		     NaN		     NaN		     NaN		     NaN		     NaN		     NaN		     NaN		     NaN		     NaN		     NaN		     NaN		     NaN		     NaN		     NaN		     NaN		     NaN		     NaN		     NaN		     NaN		     NaN		     NaN		     NaN		     NaN		     NaN		     NaN		     NaN		     NaN		     NaN		     NaN		     NaN		     NaN		     NaN		     NaN		     NaN		     NaN		     NaN		     NaN		     NaN		     NaN		     NaN		     NaN		     NaN		556.2691		     NaN		     NaN		     NaN		     NaN		     NaN		     NaN		     NaN		     NaN		     NaN		     NaN		746.4962		729.0735		709.6221		688.2150		664.4266		643.7979		622.0333		602.3606		586.1989		570.9368		559.2981		548.3963		536.3493		528.5884		522.5173		516.0635		510.3784		506.2248		501.0248		497.6506		493.3702		489.8926		487.1241		486.5655		483.4457		481.2076		479.1903		476.7804		475.6922		
 1.280		     NaN		     NaN		     NaN		     NaN		     NaN		     NaN		     NaN		     NaN		     NaN		     NaN		     NaN		     NaN		     NaN		     NaN		     NaN		     NaN		     NaN		     NaN		     NaN		     NaN		     NaN		     NaN		     NaN		     NaN		     NaN		     NaN		     NaN		     NaN		     NaN		     NaN		     NaN		     NaN		     NaN		     NaN		     NaN		     NaN		     NaN		     NaN		     NaN		     NaN		     NaN		     NaN		     NaN		     NaN		     NaN		     NaN		     NaN		     NaN		     NaN		     NaN		     NaN		     NaN		558.1845		     NaN		     NaN		     NaN		     NaN		     NaN		     NaN		     NaN		     NaN		     NaN		710.6968		689.3370		665.5575		644.9268		623.1534		603.4298		587.1614		571.8520		560.1401		549.2324		537.0482		529.2598		523.1524		516.6688		510.9296		506.7569		501.5610		498.1080		493.8518		490.3632		487.5432		487.0032		483.8831		481.6011		479.5428		477.1507		476.0405		
 1.290		     NaN		     NaN		     NaN		     NaN		     NaN		     NaN		     NaN		     NaN		     NaN		     NaN		     NaN		     NaN		     NaN		     NaN		     NaN		     NaN		     NaN		     NaN		     NaN		     NaN		     NaN		     NaN		     NaN		     NaN		     NaN		     NaN		     NaN		     NaN		     NaN		     NaN		     NaN		     NaN		     NaN		     NaN		     NaN		     NaN		     NaN		     NaN		     NaN		     NaN		     NaN		     NaN		     NaN		     NaN		     NaN		     NaN		     NaN		     NaN		     NaN		     NaN		     NaN		     NaN		     NaN		     NaN		     NaN		     NaN		     NaN		     NaN		     NaN		     NaN		     NaN		     NaN		     NaN		690.4590		666.6883		646.0557		624.2736		604.4990		588.1239		572.7673		560.9820		550.0685		537.7471		529.9312		523.7875		517.2741		511.4809		507.2891		502.0971		498.5653		494.3334		490.8338		487.9624		487.4410		484.3205		481.9945		479.8952		477.5209		476.3888		
 1.300		     NaN		     NaN		     NaN		     NaN		     NaN		     NaN		     NaN		     NaN		     NaN		     NaN		     NaN		     NaN		     NaN		     NaN		     NaN		     NaN		     NaN		     NaN		     NaN		     NaN		     NaN		     NaN		     NaN		     NaN		     NaN		     NaN		     NaN		     NaN		     NaN		     NaN		     NaN		     NaN		     NaN		     NaN		     NaN		     NaN		     NaN		     NaN		     NaN		     NaN		     NaN		     NaN		     NaN		     NaN		     NaN		     NaN		     NaN		     NaN		     NaN		     NaN		     NaN		     NaN		     NaN		     NaN		     NaN		     NaN		     NaN		     NaN		     NaN		     NaN		     NaN		     NaN		     NaN		     NaN		667.8192		647.1846		625.3938		605.5683		589.0864		573.6826		561.8240		550.9046		538.4459		530.6027		524.4226		517.8795		512.0322		507.8213		502.6333		499.0227		494.8150		491.3044		488.3815		487.8788		484.7578		482.3880		480.2476		477.8911		476.7371		
 1.310		     NaN		     NaN		     NaN		     NaN		     NaN		     NaN		     NaN		     NaN		     NaN		     NaN		     NaN		     NaN		     NaN		     NaN		     NaN		     NaN		     NaN		     NaN		     NaN		     NaN		     NaN		     NaN		     NaN		     NaN		     NaN		     NaN		     NaN		     NaN		     NaN		     NaN		     NaN		     NaN		     NaN		     NaN		     NaN		     NaN		     NaN		     NaN		     NaN		     NaN		     NaN		     NaN		     NaN		     NaN		     NaN		     NaN		     NaN		     NaN		     NaN		     NaN		     NaN		     NaN		     NaN		     NaN		     NaN		     NaN		     NaN		     NaN		     NaN		     NaN		     NaN		     NaN		     NaN		     NaN		     NaN		     NaN		626.5139		606.6375		590.0489		574.5978		562.6659		551.7407		539.1448		531.2741		525.0577		518.4848		512.5835		508.3535		503.1694		499.4800		495.2966		491.7750		488.8006		488.3166		485.1952		482.7814		480.6001		478.2614		477.0854		
 1.320		     NaN		     NaN		     NaN		     NaN		     NaN		     NaN		     NaN		     NaN		     NaN		     NaN		     NaN		     NaN		     NaN		     NaN		     NaN		     NaN		     NaN		     NaN		     NaN		     NaN		     NaN		     NaN		     NaN		     NaN		     NaN		     NaN		     NaN		     NaN		     NaN		     NaN		     NaN		     NaN		     NaN		     NaN		     NaN		     NaN		     NaN		     NaN		     NaN		     NaN		     NaN		     NaN		     NaN		     NaN		     NaN		     NaN		     NaN		     NaN		     NaN		     NaN		     NaN		     NaN		     NaN		     NaN		     NaN		     NaN		     NaN		     NaN		     NaN		     NaN		     NaN		     NaN		     NaN		     NaN		     NaN		     NaN		     NaN		603.2335		591.0114		575.5131		563.5079		552.5768		539.8436		531.9456		525.6928		519.0901		513.1348		508.8857		503.7056		499.9374		495.7781		492.2456		489.2198		488.7544		485.6326		483.1749		480.9525		478.6316		477.4337		
 1.330		     NaN		     NaN		     NaN		     NaN		     NaN		     NaN		     NaN		     NaN		     NaN		     NaN		     NaN		     NaN		     NaN		     NaN		     NaN		     NaN		     NaN		     NaN		     NaN		     NaN		     NaN		     NaN		     NaN		     NaN		     NaN		     NaN		     NaN		     NaN		     NaN		     NaN		     NaN		     NaN		     NaN		     NaN		     NaN		     NaN		     NaN		     NaN		     NaN		     NaN		     NaN		     NaN		     NaN		     NaN		     NaN		     NaN		     NaN		     NaN		     NaN		     NaN		     NaN		     NaN		     NaN		     NaN		     NaN		     NaN		     NaN		     NaN		     NaN		     NaN		     NaN		     NaN		     NaN		     NaN		     NaN		     NaN		     NaN		     NaN		     NaN		     NaN		564.3499		553.4129		540.5425		532.6170		526.3279		519.6954		513.6860		509.4179		504.2418		500.3947		496.2597		492.7162		489.6389		489.1921		486.0700		483.5683		481.3049		479.0018		477.7820		
 1.340		     NaN		     NaN		     NaN		     NaN		     NaN		     NaN		     NaN		     NaN		     NaN		     NaN		     NaN		     NaN		     NaN		     NaN		     NaN		     NaN		     NaN		     NaN		     NaN		     NaN		     NaN		     NaN		     NaN		     NaN		     NaN		     NaN		     NaN		     NaN		     NaN		     NaN		     NaN		     NaN		     NaN		     NaN		     NaN		     NaN		     NaN		     NaN		     NaN		     NaN		     NaN		     NaN		     NaN		     NaN		     NaN		     NaN		     NaN		     NaN		     NaN		     NaN		     NaN		     NaN		     NaN		     NaN		     NaN		     NaN		     NaN		     NaN		     NaN		     NaN		     NaN		     NaN		     NaN		     NaN		     NaN		     NaN		     NaN		     NaN		     NaN		     NaN		     NaN		     NaN		541.2414		533.2884		526.9629		520.3008		514.2373		509.9501		504.7779		500.8521		496.7413		493.1868		490.0580		489.6299		486.5074		483.9617		481.6574		479.3721		478.1303		
 1.350		     NaN		     NaN		     NaN		     NaN		     NaN		     NaN		     NaN		     NaN		     NaN		     NaN		     NaN		     NaN		     NaN		     NaN		     NaN		     NaN		     NaN		     NaN		     NaN		     NaN		     NaN		     NaN		     NaN		     NaN		     NaN		     NaN		     NaN		     NaN		     NaN		     NaN		     NaN		     NaN		     NaN		     NaN		     NaN		     NaN		     NaN		     NaN		     NaN		     NaN		     NaN		     NaN		     NaN		     NaN		     NaN		     NaN		     NaN		     NaN		     NaN		     NaN		     NaN		     NaN		     NaN		     NaN		     NaN		     NaN		     NaN		     NaN		     NaN		     NaN		     NaN		     NaN		     NaN		     NaN		     NaN		     NaN		     NaN		     NaN		     NaN		     NaN		     NaN		     NaN		     NaN		     NaN		     NaN		     NaN		514.7886		510.4823		505.3141		501.3094		497.2229		493.6574		490.4772		490.0677		486.9447		484.3552		482.0098		479.7423		478.4786		
 1.360		     NaN		     NaN		     NaN		     NaN		     NaN		     NaN		     NaN		     NaN		     NaN		     NaN		     NaN		     NaN		     NaN		     NaN		     NaN		     NaN		     NaN		     NaN		     NaN		     NaN		     NaN		     NaN		     NaN		     NaN		     NaN		     NaN		     NaN		     NaN		     NaN		     NaN		     NaN		     NaN		     NaN		     NaN		     NaN		     NaN		     NaN		     NaN		     NaN		     NaN		     NaN		     NaN		     NaN		     NaN		     NaN		     NaN		     NaN		     NaN		     NaN		     NaN		     NaN		     NaN		     NaN		     NaN		     NaN		     NaN		     NaN		     NaN		     NaN		     NaN		     NaN		     NaN		     NaN		     NaN		     NaN		     NaN		     NaN		     NaN		     NaN		     NaN		     NaN		     NaN		     NaN		     NaN		     NaN		     NaN		     NaN		     NaN		     NaN		     NaN		497.7045		494.1280		490.8963		490.5055		487.3821		484.7486		482.3622		480.1125		478.8269		
 1.370		     NaN		     NaN		     NaN		     NaN		     NaN		     NaN		     NaN		     NaN		     NaN		     NaN		     NaN		     NaN		     NaN		     NaN		     NaN		     NaN		     NaN		     NaN		     NaN		     NaN		     NaN		     NaN		     NaN		     NaN		     NaN		     NaN		     NaN		     NaN		     NaN		     NaN		     NaN		     NaN		     NaN		     NaN		     NaN		     NaN		     NaN		     NaN		     NaN		     NaN		     NaN		     NaN		     NaN		     NaN		     NaN		     NaN		     NaN		     NaN		     NaN		     NaN		     NaN		     NaN		     NaN		     NaN		     NaN		     NaN		     NaN		     NaN		     NaN		     NaN		     NaN		     NaN		     NaN		     NaN		     NaN		     NaN		     NaN		     NaN		     NaN		     NaN		     NaN		     NaN		     NaN		     NaN		     NaN		     NaN		     NaN		     NaN		     NaN		     NaN		     NaN		     NaN		     NaN		     NaN		     NaN		     NaN		     NaN		     NaN		479.1752		
